frame_index,timestamp,R,G,B,average_SpO2
0, 11:23:45,64.43458,186.285748,907.65767,97.5
1, 11:23:45,64.37575,186.012192,906.879972,97.5
2, 11:23:45,64.367661,185.702888,905.768466,97.5
3, 11:23:45,64.338147,185.190578,905.401989,97.5
4, 11:23:45,64.281842,184.585582,904.067472,97.5
5, 11:23:45,64.378354,184.457505,903.495028,97.5
6, 11:23:45,64.424085,184.490057,904.852273,97.5
7, 11:23:45,64.364662,184.642756,904.629261,97.5
8, 11:23:45,64.386009,184.559541,904.678267,97.5
9, 11:23:45,64.413392,184.583925,905.196733,97.5
10, 11:23:45,64.428149,184.645715,905.328835,97.5
11, 11:23:45,64.497554,184.906013,905.521307,97.5
12, 11:23:45,64.582031,185.33795,906.78054,97.5
13, 11:23:45,64.670218,185.739347,908.757102,97.5
14, 11:23:45,64.726128,186.135772,909.942472,97.5
15, 11:23:45,64.768111,186.503196,910.90554,97.5
16, 11:23:45,64.805556,186.828598,911.434659,97.5
17, 11:23:45,64.868766,187.172585,913.205966,97.5
18, 11:23:45,64.902304,187.523674,913.474432,97.5
19, 11:23:45,64.972814,187.847893,915.075994,97.5
20, 11:23:45,65.010377,188.205848,915.78054,97.5
21, 11:23:45,65.058436,188.600024,916.810369,97.5
22, 11:23:45,65.09884,188.876539,917.324574,97.5
23, 11:23:45,64.912129,188.280895,914.554688,97.5
24, 11:23:45,64.548611,186.646307,908.630682,97.5
25, 11:23:45,64.342093,185.242188,905.862216,97.5
26, 11:23:45,64.353575,184.572562,904.435369,97.5
27, 11:23:45,64.345368,184.321615,903.912642,97.5
28, 11:23:45,64.353456,184.074574,903.887784,97.5
29, 11:23:45,64.340041,183.952415,903.566761,97.5
30, 11:23:46,64.379419,184.019413,903.809659,97.5
31, 11:23:46,64.153567,183.203598,898.829545,97.5
32, 11:23:46,64.193063,183.296993,899.074574,97.5
33, 11:23:46,64.177754,183.382694,899.202415,97.5
34, 11:23:46,64.196181,183.405777,899.784091,97.5
35, 11:23:46,64.250868,183.497869,900.044034,97.5
36, 11:23:46,64.294744,183.745502,900.299716,97.5
37, 11:23:46,64.392953,184.182173,901.354403,97.5
38, 11:23:46,64.454822,184.540128,902.681108,97.5
39, 11:23:46,64.502091,184.939986,904.378551,97.5
40, 11:23:46,64.572285,185.435133,905.383523,97.5
41, 11:23:46,64.628709,185.754025,906.02983,97.5
42, 11:23:46,64.62354,186.054806,905.831676,97.5
43, 11:23:46,64.673019,186.393584,907.233665,97.5
44, 11:23:46,64.721591,186.898201,908.045455,97.5
45, 11:23:46,64.795178,187.34008,909.492188,97.5
46, 11:23:46,64.890191,187.82919,910.588778,97.5
47, 11:23:46,64.970052,188.330137,912.935369,97.5
48, 11:23:46,65.031842,188.695904,913.857244,97.5
49, 11:23:46,65.081282,189.115057,913.698864,97.5
50, 11:23:46,65.210661,189.685488,915.709517,97.5
51, 11:23:46,65.26456,190.068774,917.310369,97.5
52, 11:23:46,65.330808,190.517045,918.710227,97.5
53, 11:23:46,65.414378,191.031487,919.674716,97.5
54, 11:23:46,65.50438,191.533499,921.067472,97.5
55, 11:23:46,65.563131,191.901989,922.556818,97.5
56, 11:23:46,65.424953,191.557528,919.987216,97.5
57, 11:23:46,65.022648,189.872869,913.853693,97.5
58, 11:23:46,64.726444,188.32706,909.56179,97.5
59, 11:23:46,64.630011,187.627723,908.618608,97.5
60, 11:23:47,64.662208,187.382931,907.925426,97.5
61, 11:23:47,64.700087,187.32848,908.675426,97.5
62, 11:23:47,64.742937,187.142637,907.759233,97.5
63, 11:23:47,64.794152,187.269768,909.192472,97.5
64, 11:23:47,64.836293,187.463423,909.46804,97.5
65, 11:23:47,64.86482,187.460464,910.294034,97.5
66, 11:23:47,64.85902,187.511719,909.618608,97.5
67, 11:23:47,64.844618,187.477036,910.390625,97.5
68, 11:23:47,64.874605,187.545691,910.274148,97.5
69, 11:23:47,64.946062,187.767637,911.68821,97.5
70, 11:23:47,64.978141,188.112453,911.950284,97.5
71, 11:23:47,65.060567,188.446378,913.28054,97.5
72, 11:23:47,65.09083,188.753078,913.771307,97.5
73, 11:23:47,65.189276,189.184777,915.784801,97.5
74, 11:23:47,65.215357,189.369555,915.913352,97.5
75, 11:23:47,65.254814,189.682528,916.18608,97.5
76, 11:23:47,65.332268,190.023793,917.398438,97.5
77, 11:23:47,65.395912,190.418324,918.705966,97.5
78, 11:23:47,65.467251,190.772964,920.06108,97.5
79, 11:23:47,65.393308,190.651042,918.778409,97.5
80, 11:23:47,65.14244,189.626657,914.421875,97.5
81, 11:23:47,64.905777,188.381155,911.681818,97.5
82, 11:23:47,64.831637,187.464134,909.145597,97.5
83, 11:23:47,64.871094,187.129853,909.443892,97.5
84, 11:23:47,64.8692,187.052675,909.196733,97.5
85, 11:23:47,64.905737,187.033499,910.257812,97.5
86, 11:23:47,64.947798,187.194247,910.242188,97.5
87, 11:23:47,65.00801,187.361151,911.502131,97.5
88, 11:23:47,65.014994,187.508996,911.136364,97.5
89, 11:23:47,65.039299,187.488636,911.176136,97.5
90, 11:23:48,65.042337,187.534209,911.279119,97.5
91, 11:23:48,65.060803,187.679096,911.835938,97.5
92, 11:23:48,65.101918,187.921757,913.15554,97.5
93, 11:23:48,65.154553,188.238755,913.577415,97.5
94, 11:23:48,65.249448,188.546165,913.859375,97.5
95, 11:23:48,65.306503,189.035985,916.176136,97.5
96, 11:23:48,65.35902,189.413234,916.916903,97.5
97, 11:23:48,65.417771,189.730587,917.65625,97.5
98, 11:23:48,65.478535,190.048769,918.326705,97.5
99, 11:23:48,65.531881,190.427083,920.082386,97.5
100, 11:23:48,65.583728,190.70857,920.240057,97.5
101, 11:23:48,65.642795,191.106889,921.851562,97.5
102, 11:23:48,65.716974,191.47242,921.899858,97.5
103, 11:23:48,65.806542,191.897372,923.96946,97.5
104, 11:23:48,65.828164,192.225024,924.071733,97.5
105, 11:23:48,65.927636,192.580256,925.509943,97.5
106, 11:23:48,65.99633,193.035393,926.433949,97.5
107, 11:23:48,66.04072,193.463068,927.585227,97.5
108, 11:23:48,66.084478,193.686198,928.475142,97.5
109, 11:23:48,65.792022,192.642637,924.358665,97.5
110, 11:23:48,65.376894,190.59517,917.943182,97.5
111, 11:23:48,65.136877,188.96366,914.15696,97.5
112, 11:23:48,65.13593,187.926255,912.168324,97.5
113, 11:23:48,65.14098,187.450876,912.117188,97.5
114, 11:23:48,65.108231,186.951586,911.209517,97.5
115, 11:23:48,65.060961,186.460346,910.364347,97.5
116, 11:23:48,65.070983,186.353575,910.763494,97.5
117, 11:23:48,65.153804,186.48982,911.490057,97.5
118, 11:23:48,65.189591,186.573509,911.37571,97.5
119, 11:23:48,65.183633,186.529119,911.651989,97.5
120, 11:23:49,65.196457,186.492306,911.428267,97.5
121, 11:23:49,65.205098,186.44768,911.262784,97.5
122, 11:23:49,65.246883,186.617069,911.96946,97.5
123, 11:23:49,65.283499,186.837713,912.273438,97.5
124, 11:23:49,65.338976,187.171757,912.408381,97.5
125, 11:23:49,65.426413,187.493253,914.320312,97.5
126, 11:23:49,65.515033,187.800308,915.634233,97.5
127, 11:23:49,65.525647,188.133759,916.458807,97.5
128, 11:23:49,65.575166,188.370384,916.78196,97.5
129, 11:23:49,65.642953,188.71295,918.098722,97.5
130, 11:23:49,65.686198,189.112098,918.982244,97.5
131, 11:23:49,65.756116,189.434541,919.269176,97.5
132, 11:23:49,65.806108,189.817472,920.731534,97.5
133, 11:23:49,65.850655,190.235677,922.044744,97.5
134, 11:23:49,65.770912,189.924479,921.47017,97.5
135, 11:23:49,65.447917,188.380682,916.934659,97.5
136, 11:23:49,65.199811,186.775095,911.806818,97.5
137, 11:23:49,65.117464,185.857599,909.597301,97.5
138, 11:23:49,65.102628,185.351918,909.296165,97.5
139, 11:23:49,65.068892,185.018703,907.913352,97.5
140, 11:23:49,65.052517,184.675071,907.575994,97.5
141, 11:23:49,65.069997,184.556581,907.87358,97.5
142, 11:23:49,65.116951,184.633523,908.247159,97.5
143, 11:23:49,65.135732,184.741477,908.752841,97.5
144, 11:23:49,65.132023,184.637074,908.021307,97.5
145, 11:23:49,65.124763,184.615767,908.200284,97.5
146, 11:23:49,65.14098,184.668679,908.730824,97.5
147, 11:23:49,65.184422,184.837831,909.208807,97.5
148, 11:23:49,65.253946,185.149621,910.161932,97.5
149, 11:23:49,65.345604,185.672704,912.098722,97.5
150, 11:23:50,65.407236,186.11991,912.608665,97.475
151, 11:23:50,65.476444,186.520715,914.269176,97.475
152, 11:23:50,65.571062,186.984967,915.659801,97.475
153, 11:23:50,65.651476,187.374882,916.666903,97.475
154, 11:23:50,65.717764,187.826586,917.360085,97.475
155, 11:23:50,65.74491,188.292022,918.044744,97.475
156, 11:23:50,65.870384,188.80812,920.175426,97.475
157, 11:23:50,65.947443,189.293087,921.965909,97.475
158, 11:23:50,66.002328,189.810488,922.672585,97.475
159, 11:23:50,66.106258,190.366596,924.355824,97.475
160, 11:23:50,66.170178,190.835819,925.53196,97.475
161, 11:23:50,66.226405,191.334991,927.007102,97.475
162, 11:23:50,66.288707,191.821141,926.654119,97.475
163, 11:23:50,66.368884,192.476444,929.512074,97.475
164, 11:23:50,66.444642,192.896899,929.378551,97.475
165, 11:23:50,66.525647,193.410275,930.975852,97.475
166, 11:23:50,66.603693,193.937027,932.380682,97.475
167, 11:23:50,66.669547,194.392637,934.009233,97.475
168, 11:23:50,66.748619,194.924361,935.745028,97.475
169, 11:23:50,66.766533,195.126776,935.485085,97.475
170, 11:23:50,66.479088,194.096354,931.47017,97.475
171, 11:23:50,66.095565,192.060369,925.640625,97.475
172, 11:23:50,65.918561,190.489583,921.607955,97.475
173, 11:23:50,65.91785,189.803267,920.421875,97.475
174, 11:23:50,65.944602,189.491004,920.477273,97.475
175, 11:23:50,65.978338,189.334635,920.340199,97.475
176, 11:23:50,65.956913,189.118371,920.386364,97.475
177, 11:23:50,65.99779,189.005682,921.082386,97.475
178, 11:23:50,66.017874,189.155895,921.06321,97.475
179, 11:23:50,66.062066,189.220762,922.216619,97.475
180, 11:23:51,66.057726,189.239938,921.996449,97.5
181, 11:23:51,66.055753,189.161577,922.100142,97.5
182, 11:23:51,66.095368,189.356179,922.679688,97.5
183, 11:23:51,66.183436,189.620384,923.736506,97.5
184, 11:23:51,66.250631,189.99858,924.119318,97.5
185, 11:23:51,66.289773,190.312027,925.457386,97.5
186, 11:23:51,66.339804,190.715436,925.545455,97.5
187, 11:23:51,66.42006,191.117188,927.521307,97.5
188, 11:23:51,66.449061,191.549834,927.276278,97.5
189, 11:23:51,66.506668,191.89027,928.952415,97.5
190, 11:23:51,66.548887,192.21437,928.96804,97.5
191, 11:23:51,66.638297,192.626539,930.716619,97.5
192, 11:23:51,66.65842,192.977628,930.800426,97.5
193, 11:23:51,66.708728,193.424006,932.84517,97.5
194, 11:23:51,66.785511,193.966383,933.258523,97.5
195, 11:23:51,66.741556,193.996449,933.62358,97.5
196, 11:23:51,66.45565,192.869318,928.696023,97.5
197, 11:23:51,66.172191,191.323864,924.9375,97.5
198, 11:23:51,66.097854,190.366951,922.727273,97.5
199, 11:23:51,66.151791,190.155185,922.939631,97.5
200, 11:23:51,66.161853,190.052794,923.90767,97.5
201, 11:23:51,66.208886,190.09304,923.484375,97.5
202, 11:23:51,66.26819,190.292259,923.756392,97.5
203, 11:23:51,66.335148,190.616714,925.504261,97.5
204, 11:23:51,66.351365,190.769531,926.256392,97.5
205, 11:23:51,66.342566,190.839725,926.086648,97.5
206, 11:23:51,66.355627,190.906368,925.330256,97.5
207, 11:23:51,66.367306,191.024266,926.114347,97.5
208, 11:23:51,66.405421,191.230942,926.416903,97.5
209, 11:23:51,66.464765,191.591264,927.899858,97.5
210, 11:23:52,66.524463,191.90625,927.815341,97.475
211, 11:23:52,66.598366,192.411103,930.077415,97.475
212, 11:23:52,66.644295,192.805043,930.958097,97.475
213, 11:23:52,66.667574,193.208688,931.345881,97.475
214, 11:23:52,66.748303,193.639323,932.830256,97.475
215, 11:23:52,66.781171,194.151278,934.00142,97.475
216, 11:23:52,66.842724,194.452888,934.205966,97.475
217, 11:23:52,66.86044,194.928385,935.402699,97.475
218, 11:23:52,66.930122,195.24491,936.179688,97.475
219, 11:23:52,67.013889,195.745739,938.125,97.475
220, 11:23:52,67.064394,196.184186,938.201705,97.475
221, 11:23:52,67.138889,196.612689,939.284091,97.475
222, 11:23:52,67.226997,197.133168,941.372869,97.475
223, 11:23:52,67.299242,197.540246,942.346591,97.475
224, 11:23:52,67.345052,197.967921,942.946733,97.475
225, 11:23:52,67.309107,197.983191,943.055398,97.475
226, 11:23:52,66.915838,196.591264,937.161222,97.475
227, 11:23:52,66.543916,194.706558,932.105824,97.475
228, 11:23:52,66.347617,193.481771,928.205966,97.475
229, 11:23:52,66.354246,192.942945,928.413352,97.475
230, 11:23:52,66.366911,192.678385,927.837358,97.475
231, 11:23:52,66.364149,192.550781,927.480824,97.475
232, 11:23:52,66.379104,192.504261,927.556818,97.475
233, 11:23:52,66.421993,192.593158,928.161222,97.475
234, 11:23:52,66.45273,192.670218,928.495739,97.475
235, 11:23:52,66.413865,192.569247,928.597301,97.475
236, 11:23:52,66.403172,192.475616,927.524148,97.475
237, 11:23:52,66.40771,192.406368,927.895597,97.475
238, 11:23:52,66.439236,192.510417,928.315341,97.475
239, 11:23:52,66.456518,192.805634,929.09233,97.475
240, 11:23:53,66.533894,193.175545,930.192472,97.475
241, 11:23:53,66.59742,193.489702,931.287642,97.475
242, 11:23:53,66.645873,193.845289,931.637074,97.475
243, 11:23:53,66.698548,194.11411,932.795455,97.475
244, 11:23:53,66.71224,194.493726,933.070312,97.475
245, 11:23:53,66.739781,194.748224,933.881392,97.475
246, 11:23:53,66.797546,195.100024,934.421165,97.475
247, 11:23:53,66.827415,195.407907,935.62642,97.475
248, 11:23:53,66.812776,195.646188,935.558949,97.475
249, 11:23:53,66.669902,194.924953,933.50142,97.475
250, 11:23:53,66.260574,193.103693,926.417614,97.475
251, 11:23:53,66.053346,191.609848,923.411932,97.475
252, 11:23:53,66.004893,190.860795,922.184659,97.475
253, 11:23:53,66.034446,190.531368,922.972301,97.475
254, 11:23:53,66.014836,190.326705,921.934659,97.475
255, 11:23:53,66.030934,190.12358,922.127841,97.475
256, 11:23:53,66.079664,190.169389,922.715199,97.475
257, 11:23:53,66.111269,190.31108,923.159091,97.475
258, 11:23:53,66.151752,190.465199,923.666193,97.475
259, 11:23:53,66.138336,190.412169,923.52983,97.475
260, 11:23:53,66.117937,190.408262,923.239347,97.475
261, 11:23:53,66.134075,190.46946,923.612216,97.475
262, 11:23:53,66.168561,190.703598,924.394886,97.475
263, 11:23:53,66.250868,191.045218,924.805398,97.475
264, 11:23:53,66.297506,191.419508,925.536932,97.475
265, 11:23:53,66.386719,191.851918,927.139915,97.475
266, 11:23:53,66.400292,192.228338,927.955256,97.475
267, 11:23:53,66.49491,192.623935,929.081676,97.475
268, 11:23:53,66.484375,192.831439,928.715909,97.475
269, 11:23:53,66.517282,193.303267,930.416193,97.475
270, 11:23:54,66.566091,193.714844,931.027699,97.475
271, 11:23:54,66.630879,194.066406,932.65696,97.475
272, 11:23:54,66.672427,194.468513,933.305398,97.475
273, 11:23:54,66.765586,194.908026,934.683949,97.475
274, 11:23:54,66.83211,195.381747,935.381392,97.475
275, 11:23:54,66.915996,195.844105,937.002131,97.475
276, 11:23:54,66.968632,196.147846,937.730824,97.475
277, 11:23:54,67.040996,196.67081,938.388494,97.475
278, 11:23:54,67.107639,197.133523,939.221591,97.475
279, 11:23:54,67.114741,197.544981,940.488636,97.475
280, 11:23:54,67.188131,197.93608,941.815341,97.475
281, 11:23:54,67.266572,198.346591,943.318182,97.475
282, 11:23:54,67.142795,198.023082,941.959517,97.475
283, 11:23:54,66.663747,196.040956,934.617898,97.475
284, 11:23:54,66.22096,193.703125,928.340909,97.475
285, 11:23:54,66.011837,192.190341,925.085227,97.475
286, 11:23:54,65.987216,191.422822,922.985795,97.475
287, 11:23:54,65.989702,191.051965,922.564631,97.475
288, 11:23:54,65.986821,190.621922,922.669034,97.475
289, 11:23:54,65.970802,190.307765,922.553977,97.475
290, 11:23:54,65.973919,190.292969,921.772017,97.475
291, 11:23:54,66.000552,190.240294,921.87358,97.475
292, 11:23:54,65.985204,190.199455,921.537642,97.475
293, 11:23:54,65.948548,190.099905,921.690341,97.475
294, 11:23:54,65.952533,190.046993,921.120028,97.475
295, 11:23:54,65.96804,190.124763,921.34517,97.475
296, 11:23:54,66.02182,190.361861,922.179688,97.475
297, 11:23:54,66.131471,190.780777,924.002841,97.475
298, 11:23:54,66.187539,191.113755,924.185369,97.475
299, 11:23:54,66.246409,191.518584,926.466619,97.475
300, 11:23:55,66.280461,191.830966,925.625,97.475
301, 11:23:55,66.317156,192.062263,927.129261,97.475
302, 11:23:55,66.358191,192.610559,927.882102,97.475
303, 11:23:55,66.399976,192.915365,928.756392,97.475
304, 11:23:55,66.431621,193.305753,929.482244,97.475
305, 11:23:55,66.485914,193.709635,930.641335,97.475
306, 11:23:55,66.58791,194.12642,931.803977,97.475
307, 11:23:55,66.64532,194.533973,932.37429,97.475
308, 11:23:55,66.66572,194.830966,933.088068,97.475
309, 11:23:55,66.476128,194.197798,930.666903,97.475
310, 11:23:55,66.033696,192.166903,923.771307,97.475
311, 11:23:55,65.76381,190.284328,919.742898,97.475
312, 11:23:55,65.669942,189.219105,917.189631,97.475
313, 11:23:55,65.703796,189.021899,917.452415,97.475
314, 11:23:55,65.696891,188.71804,917.475852,97.475
315, 11:23:55,65.695076,188.565341,917.213068,97.475
316, 11:23:55,65.754656,188.685843,917.799716,97.475
317, 11:23:55,65.809225,188.851444,918.838778,97.475
318, 11:23:55,65.835977,189.009351,918.735085,97.475
319, 11:23:55,65.830414,188.971354,919.115057,97.475
320, 11:23:55,65.819444,189.015152,919.065341,97.475
321, 11:23:55,65.856416,189.075876,919.199574,97.475
322, 11:23:55,65.914378,189.319366,920.146307,97.475
323, 11:23:55,65.999882,189.763849,921.299006,97.475
324, 11:23:55,66.061237,190.253314,922.309659,97.475
325, 11:23:55,66.163628,190.740885,924.425426,97.475
326, 11:23:55,66.220644,191.188447,925.019886,97.475
327, 11:23:55,66.284249,191.723485,926.642045,97.475
328, 11:23:55,66.340002,192.132221,926.674006,97.475
329, 11:23:55,66.39169,192.504143,928.581676,97.475
330, 11:23:56,66.450639,193.055043,929.148438,97.475
331, 11:23:56,66.51235,193.490175,930.497869,97.475
332, 11:23:56,66.574061,193.975024,931.745028,97.475
333, 11:23:56,66.6497,194.420691,933.27983,97.475
334, 11:23:56,66.725142,194.922585,933.666193,97.475
335, 11:23:56,66.794626,195.386719,935.289062,97.475
336, 11:23:56,66.895202,195.924716,936.332386,97.475
337, 11:23:56,66.982047,196.468395,937.867188,97.475
338, 11:23:56,67.040246,196.94697,938.801136,97.475
339, 11:23:56,67.10322,197.375,940.366477,97.475
340, 11:23:56,67.167061,197.858665,940.944602,97.475
341, 11:23:56,67.205532,198.377012,941.878551,97.475
342, 11:23:56,67.198982,198.561435,941.74929,97.475
343, 11:23:56,66.832899,197.217921,937.142756,97.475
344, 11:23:56,66.352825,194.995975,929.62642,97.475
345, 11:23:56,66.037642,193.148911,924.669034,97.475
346, 11:23:56,65.97964,192.32339,923.502841,97.475
347, 11:23:56,66.004853,192.124882,924.183949,97.475
348, 11:23:56,66.064552,192.144886,924.482955,97.475
349, 11:23:56,66.077217,192.159209,924.725142,97.475
350, 11:23:56,66.156132,192.376065,924.904119,97.475
351, 11:23:56,66.192669,192.576113,925.269176,97.475
352, 11:23:56,66.184067,192.582031,925.699574,97.475
353, 11:23:56,66.165522,192.482363,925.621449,97.475
354, 11:23:56,66.138455,192.37938,925.154119,97.475
355, 11:23:56,66.154356,192.448864,925.588068,97.475
356, 11:23:56,66.222577,192.70419,926.78196,97.475
357, 11:23:56,66.296244,193.071023,927.909091,97.475
358, 11:23:56,66.386719,193.559304,929.003551,97.475
359, 11:23:56,66.448745,193.944247,930.054688,97.475
360, 11:23:57,66.515428,194.348366,930.360085,97.475
361, 11:23:57,66.563644,194.669626,930.901278,97.475
362, 11:23:57,66.585977,195.000355,931.769176,97.475
363, 11:23:57,66.624527,195.254735,933.184659,97.475
364, 11:23:57,66.6686,195.523319,933.111506,97.475
365, 11:23:57,66.728812,195.918916,933.806108,97.475
366, 11:23:57,66.796559,196.385417,935.369318,97.475
367, 11:23:57,66.800623,196.538707,935.709517,97.475
368, 11:23:57,66.515112,195.456795,931.621449,97.475
369, 11:23:57,66.097262,193.472656,925.321733,97.475
370, 11:23:57,65.849787,191.955611,922.085938,97.475
371, 11:23:57,65.807765,191.255682,921.258523,97.475
372, 11:23:57,65.866714,191.192945,921.214489,97.475
373, 11:23:57,65.900568,191.122633,922.082386,97.475
374, 11:23:57,65.968158,191.305516,921.31321,97.475
375, 11:23:57,66.058988,191.642874,923.462358,97.475
376, 11:23:57,66.088699,191.856534,923.340909,97.475
377, 11:23:57,66.041272,191.891809,923.84517,97.475
378, 11:23:57,66.05524,191.660985,922.59375,97.475
379, 11:23:57,66.008286,191.709517,923.734375,97.475
380, 11:23:57,66.041785,191.852628,923.377131,97.475
381, 11:23:57,66.100576,192.143111,924.756392,97.475
382, 11:23:57,66.146188,192.437145,924.816051,97.475
383, 11:23:57,66.248461,192.850497,926.56321,97.475
384, 11:23:57,66.346473,193.419626,927.367188,97.475
385, 11:23:57,66.405895,193.891454,929.135653,97.475
386, 11:23:57,66.464804,194.263731,929.28125,97.475
387, 11:23:57,66.540996,194.658026,930.808949,97.475
388, 11:23:57,66.55887,194.942235,931.147727,97.475
389, 11:23:57,66.64753,195.391927,933.453835,97.475
390, 11:23:58,66.68166,195.723485,933.8125,97.725
391, 11:23:58,66.72822,196.105587,934.761364,97.725
392, 11:23:58,66.790443,196.502486,935.747869,97.725
393, 11:23:58,66.839844,196.980232,937.174006,97.725
394, 11:23:58,66.882023,197.397964,937.899148,97.725
395, 11:23:58,66.948587,197.713187,939.105824,97.725
396, 11:23:58,67.021465,198.238163,940.207386,97.725
397, 11:23:58,67.083215,198.676728,940.847301,97.725
398, 11:23:58,67.014915,198.615767,940.504261,97.725
399, 11:23:58,66.551294,196.830966,933.298295,97.725
400, 11:23:58,65.992622,194.201823,925.554688,97.725
401, 11:23:58,65.724669,192.276278,920.598011,97.725
402, 11:23:58,65.644807,191.165483,918.865057,97.725
403, 11:23:58,65.653606,190.541785,919.071733,97.725
404, 11:23:58,65.644807,190.297585,918.078125,97.725
405, 11:23:58,65.612058,189.96875,917.747159,97.725
406, 11:23:58,65.639875,189.76527,916.989347,97.725
407, 11:23:58,65.6439,189.790128,917.459517,97.725
408, 11:23:58,65.650923,189.767164,917.117188,97.725
409, 11:23:58,65.623895,189.587595,917.517045,97.725
410, 11:23:58,65.606455,189.477983,916.825284,97.725
411, 11:23:58,65.588581,189.453243,916.554688,97.725
412, 11:23:58,65.654356,189.512311,916.6875,97.725
413, 11:23:58,65.702099,189.84304,918.955966,97.725
414, 11:23:58,65.770715,190.233546,919.21946,97.725
415, 11:23:58,65.863952,190.582386,920.403409,97.725
416, 11:23:58,65.91789,191.092211,921.385653,97.725
417, 11:23:58,65.948864,191.327178,922.460227,97.725
418, 11:23:58,65.98982,191.737453,922.808239,97.725
419, 11:23:58,66.029435,192.058949,923.802557,97.725
420, 11:23:59,66.103456,192.438684,924.52983,97.725
421, 11:23:59,66.136087,192.686671,925.867188,97.725
422, 11:23:59,66.196378,193.093395,926.620028,97.725
423, 11:23:59,66.249369,193.408144,927.625,97.725
424, 11:23:59,66.33941,193.975142,928.711648,97.725
425, 11:23:59,66.347064,194.161932,929.602273,97.725
426, 11:23:59,66.075758,193.215436,925.045455,97.725
427, 11:23:59,65.584044,190.926847,917.59233,97.725
428, 11:23:59,65.301965,188.800308,913.412642,97.725
429, 11:23:59,65.177123,187.572562,910.53196,97.725
430, 11:23:59,65.179056,187.132339,909.37642,97.725
431, 11:23:59,65.162997,186.814276,909.266335,97.725
432, 11:23:59,65.157236,186.528527,909.014915,97.725
433, 11:23:59,65.168521,186.553385,909.513494,97.725
434, 11:23:59,65.215238,186.704427,909.263494,97.725
435, 11:23:59,65.242661,186.784801,910.004261,97.725
436, 11:23:59,65.233625,186.739228,909.759233,97.725
437, 11:23:59,65.214765,186.610204,909.604403,97.725
438, 11:23:59,65.225339,186.696851,910.129972,97.725
439, 11:23:59,65.263534,186.862571,910.649858,97.725
440, 11:23:59,65.372909,187.241832,912.016335,97.725
441, 11:23:59,65.439591,187.625592,913.512074,97.725
442, 11:23:59,65.541903,188.044271,914.992898,97.725
443, 11:23:59,65.602746,188.441288,916.09375,97.725
444, 11:23:59,65.643703,188.940104,917.021307,97.725
445, 11:23:59,65.717211,189.332978,918.395597,97.725
446, 11:23:59,65.764362,189.657197,918.133523,97.725
447, 11:23:59,65.785985,190.072917,919.485795,97.725
448, 11:23:59,65.832584,190.42294,920.074574,97.725
449, 11:23:59,65.930279,190.876539,921.463778,97.725
450, 11:24:00,65.96654,191.252841,921.548295,97.725
451, 11:24:00,66.02758,191.756037,923.871449,97.725
452, 11:24:00,66.119437,192.308594,923.891335,97.725
453, 11:24:00,66.188289,192.804451,925.911932,97.725
454, 11:24:00,66.254577,193.205019,926.46875,97.725
455, 11:24:00,66.322443,193.620739,928.082386,97.725
456, 11:24:00,66.399424,194.173651,929.039062,97.725
457, 11:24:00,66.461884,194.583097,930.225852,97.725
458, 11:24:00,66.341698,194.320076,928.678977,97.725
459, 11:24:00,65.831479,192.335346,921.014915,97.725
460, 11:24:00,65.362729,189.752959,913.273438,97.725
461, 11:24:00,65.16568,188.081795,910.607244,97.725
462, 11:24:00,65.127683,187.377367,908.90625,97.725
463, 11:24:00,65.135693,187.148556,909.862926,97.725
464, 11:24:00,65.180279,186.968395,909.816051,97.725
465, 11:24:00,65.175229,186.828717,908.983665,97.725
466, 11:24:00,65.199929,186.924598,909.695312,97.725
467, 11:24:00,65.216264,186.970762,910.199574,97.725
468, 11:24:00,65.193379,186.935251,909.049006,97.725
469, 11:24:00,65.174755,186.716974,909.216619,97.725
470, 11:24:00,65.161024,186.705611,908.685369,97.725
471, 11:24:00,65.192077,186.757102,909.284091,97.725
472, 11:24:00,65.232402,186.946733,909.742898,97.725
473, 11:24:00,65.290917,187.30883,910.901278,97.725
474, 11:24:00,65.387074,187.825994,911.458807,97.725
475, 11:24:00,65.452296,188.277817,913.152699,97.725
476, 11:24:00,65.511995,188.618371,914.1875,97.725
477, 11:24:00,65.582071,189.082386,915.954545,97.725
478, 11:24:00,65.620384,189.42081,916.232244,97.725
479, 11:24:00,65.665601,189.782315,917.65696,97.725
480, 11:24:01,65.754025,190.243608,917.669034,97.725
481, 11:24:01,65.84154,190.728693,920.272727,97.725
482, 11:24:01,65.889007,191.196378,920.746449,97.725
483, 11:24:01,65.799558,190.991477,919.903409,97.725
484, 11:24:01,65.396188,189.24633,913.634233,97.725
485, 11:24:01,65.038905,187.113873,907.68608,97.725
486, 11:24:01,64.836214,185.720762,904.585938,97.725
487, 11:24:01,64.790286,185.045099,903.551847,97.725
488, 11:24:01,64.803307,184.924598,903.652699,97.725
489, 11:24:01,64.834241,184.844579,903.575994,97.725
490, 11:24:01,64.895439,185.024384,903.615057,97.725
491, 11:24:01,64.939591,185.237334,905.037642,97.725
492, 11:24:01,64.948785,185.336411,905.473011,97.725
493, 11:24:01,64.928504,185.281723,904.775568,97.725
494, 11:24:01,64.899424,185.171283,903.919744,97.725
495, 11:24:01,64.882063,185.161813,904.473722,97.725
496, 11:24:01,64.934343,185.357955,904.988636,97.725
497, 11:24:01,65.00872,185.661577,905.81321,97.725
498, 11:24:01,65.119397,186.200994,908.288352,97.725
499, 11:24:01,65.207899,186.556937,908.87571,97.725
500, 11:24:01,65.263928,187.019058,910.111506,97.725
501, 11:24:01,65.341501,187.293916,911.181108,97.725
502, 11:24:01,65.373264,187.741951,911.372159,97.725
503, 11:24:01,65.405027,187.994437,912.449574,97.725
504, 11:24:01,65.450876,188.397609,913.385653,97.725
505, 11:24:01,65.519729,188.722538,914.477273,97.725
506, 11:24:01,65.558949,189.079309,914.759943,97.725
507, 11:24:01,65.661143,189.599905,916.795455,97.725
508, 11:24:01,65.652502,189.798887,916.986506,97.725
509, 11:24:01,65.291509,188.522254,912.329545,97.725
510, 11:24:02,64.830414,186.055161,904.401989,97.725
511, 11:24:02,64.47242,183.993016,898.847301,97.725
512, 11:24:02,64.298295,182.721117,895.298295,97.725
513, 11:24:02,64.264402,182.228338,894.236506,97.725
514, 11:24:02,64.298532,181.898911,894.120739,97.725
515, 11:24:02,64.283302,181.580966,894.536932,97.725
516, 11:24:02,64.30303,181.544981,894.536932,97.725
517, 11:24:02,64.341817,181.732836,895.152699,97.725
518, 11:24:02,64.352115,181.788352,895.5625,97.725
519, 11:24:02,64.357521,181.799834,895.966619,97.725
520, 11:24:02,64.355429,181.723958,895.366477,97.725
521, 11:24:02,64.367109,181.839015,895.818182,97.725
522, 11:24:02,64.423217,182.068892,896.169034,97.725
523, 11:24:02,64.527304,182.513258,898.198864,97.725
524, 11:24:02,64.579506,182.904238,898.766335,97.725
525, 11:24:02,64.658578,183.424598,900.408381,97.725
526, 11:24:02,64.749171,183.792495,901.689631,97.725
527, 11:24:02,64.779514,184.222538,901.934659,97.725
528, 11:24:02,64.836293,184.518821,903.101562,97.725
529, 11:24:02,64.90041,184.903883,904.071023,97.725
530, 11:24:02,64.969263,185.27616,905.159801,97.725
531, 11:24:02,65.050189,185.776042,907.122159,97.725
532, 11:24:02,65.123343,186.143703,907.401989,97.725
533, 11:24:02,65.198311,186.673532,909.515625,97.725
534, 11:24:02,65.302083,187.156723,911.28125,97.725
535, 11:24:02,65.35389,187.541312,912.665483,97.725
536, 11:24:02,65.405658,188.047467,913.551847,97.725
537, 11:24:02,65.456439,188.444129,914.443182,97.725
538, 11:24:02,65.511048,188.888731,914.298295,97.725
539, 11:24:02,65.604364,189.31688,916.810369,97.725
540, 11:24:03,65.686671,189.873461,917.84304,97.75
541, 11:24:03,65.631234,189.817472,916.973011,97.75
542, 11:24:03,65.121804,187.76598,909.456676,97.75
543, 11:24:03,64.562973,185.014205,901.363636,97.75
544, 11:24:03,64.194918,182.80303,894.559659,97.75
545, 11:24:03,64.110006,181.766098,892.724432,97.75
546, 11:24:03,64.100892,181.173887,892.338778,97.75
547, 11:24:03,64.005603,180.509706,890.71733,97.75
548, 11:24:03,63.976997,180.101918,889.171165,97.75
549, 11:24:03,63.997238,180.002604,890.433239,97.75
550, 11:24:03,64.050032,180.133049,890.420455,97.75
551, 11:24:03,64.078046,180.273438,890.330966,97.75
552, 11:24:03,64.078401,180.310014,890.962358,97.75
553, 11:24:03,64.076073,180.290246,891.1875,97.75
554, 11:24:03,64.083254,180.341146,890.901989,97.75
555, 11:24:03,64.147096,180.635417,892.519886,97.75
556, 11:24:03,64.227273,181.026989,892.997159,97.75
557, 11:24:03,64.310606,181.416193,894.346591,97.75
558, 11:24:03,64.345762,181.957741,894.297585,97.75
559, 11:24:03,64.46437,182.429569,897.242188,97.75
560, 11:24:03,64.533973,182.853338,897.620028,97.75
561, 11:24:03,64.583097,183.287169,899.578125,97.75
562, 11:24:03,64.697404,183.720052,900.894176,97.75
563, 11:24:03,64.704901,183.978338,901.580256,97.75
564, 11:24:03,64.799045,184.521188,903.022017,97.75
565, 11:24:03,64.866951,184.949337,904.150568,97.75
566, 11:24:03,64.957505,185.451113,905.252131,97.75
567, 11:24:03,65.068537,185.968395,907.486506,97.75
568, 11:24:03,65.148911,186.374763,908.740057,97.75
569, 11:24:03,65.220447,186.881037,909.564631,97.75
570, 11:24:04,65.28851,187.390152,910.497159,97.75
571, 11:24:04,65.352194,187.925426,911.56108,97.75
572, 11:24:04,65.43316,188.451941,913.265625,97.75
573, 11:24:04,65.405185,188.600497,913.872869,97.75
574, 11:24:04,65.000158,187.173769,907.153409,97.75
575, 11:24:04,64.435448,184.425663,899.278409,97.75
576, 11:24:04,64.089725,182.388021,893.035511,97.75
577, 11:24:04,63.998185,181.191998,890.350852,97.75
578, 11:24:04,63.996173,180.710582,890.237926,97.75
579, 11:24:04,63.943774,180.422704,889.953835,97.75
580, 11:24:04,63.925308,180.1817,889.067472,97.75
581, 11:24:04,63.966146,180.172112,890.041193,97.75
582, 11:24:04,64.026712,180.482126,890.330256,97.75
583, 11:24:04,64.034288,180.600971,890.924006,97.75
584, 11:24:04,64.050466,180.60973,890.445312,97.75
585, 11:24:04,64.059541,180.643111,891.066051,97.75
586, 11:24:04,64.065617,180.818063,891.220881,97.75
587, 11:24:04,64.129538,181.12062,892.067472,97.75
588, 11:24:04,64.238834,181.522372,893.31321,97.75
589, 11:24:04,64.290088,182.107008,894.846591,97.75
590, 11:24:04,64.428504,182.667614,896.909091,97.75
591, 11:24:04,64.478733,183.035156,897.87571,97.75
592, 11:24:04,64.542614,183.479167,898.8125,97.75
593, 11:24:04,64.644847,183.894295,900.166903,97.75
594, 11:24:04,64.700284,184.368845,901.414773,97.75
595, 11:24:04,64.786695,184.847775,902.81108,97.75
596, 11:24:04,64.844736,185.263849,903.324574,97.75
597, 11:24:04,64.944997,185.768229,905.34517,97.75
598, 11:24:04,64.940301,186.004143,905.652699,97.75
599, 11:24:04,64.649621,185.019413,901.536932,97.75
600, 11:24:05,64.178385,182.848603,893.983665,97.775
601, 11:24:05,63.873185,181.038116,889.612216,97.775
602, 11:24:05,63.773635,180.13009,887.181108,97.775
603, 11:24:05,63.787839,179.871567,887.243608,97.775
604, 11:24:05,63.80887,179.828598,887.732955,97.775
605, 11:24:05,63.860322,179.986269,888.559659,97.775
606, 11:24:05,63.991043,180.419152,890.145597,97.775
607, 11:24:05,64.023753,180.776752,891.319602,97.775
608, 11:24:05,64.017203,180.812973,890.630682,97.775
609, 11:24:05,64.016177,180.782434,891.455966,97.775
610, 11:24:05,64.042653,180.928622,891.083097,97.775
611, 11:24:05,64.061158,181.075047,891.697443,97.775
612, 11:24:05,64.167969,181.513849,892.631392,97.775
613, 11:24:05,64.258917,182.064157,894.458807,97.775
614, 11:24:05,64.359493,182.517401,895.74929,97.775
615, 11:24:05,64.438644,183.092448,897.080256,97.775
616, 11:24:05,64.514362,183.588542,898.738636,97.775
617, 11:24:05,64.570983,183.932173,899.325994,97.775
618, 11:24:05,64.650134,184.326823,901.020597,97.775
619, 11:24:05,64.720604,184.780185,901.539062,97.775
620, 11:24:05,64.742227,185.279238,902.368608,97.775
621, 11:24:05,64.873658,185.727509,904.870739,97.775
622, 11:24:05,64.985085,186.275331,906.34517,97.775
623, 11:24:05,65.071575,186.779119,908.115057,97.775
624, 11:24:05,65.126618,187.385062,908.466619,97.775
625, 11:24:05,65.213542,187.832386,910.585227,97.775
626, 11:24:05,65.297704,188.339134,911.972301,97.775
627, 11:24:05,65.353614,188.804688,913.06392,97.775
628, 11:24:05,65.416154,189.299124,912.953835,97.775
629, 11:24:05,65.497277,189.757931,914.40554,97.775
630, 11:24:06,65.423808,189.852865,914.117188,97.775
631, 11:24:06,64.874053,187.672348,907.017045,97.775
632, 11:24:06,64.264599,184.559896,897.634943,97.775
633, 11:24:06,63.886443,182.325047,891.643466,97.775
634, 11:24:06,63.807844,181.163116,888.984375,97.775
635, 11:24:06,63.767874,180.601444,888.267756,97.775
636, 11:24:06,63.733507,180.251184,886.90767,97.775
637, 11:24:06,63.725497,179.914181,887.016335,97.775
638, 11:24:06,63.774424,179.930279,887.487926,97.775
639, 11:24:06,63.793916,180.113755,888.03196,97.775
640, 11:24:06,63.84012,180.261837,888.565341,97.775
641, 11:24:06,63.853417,180.297467,888.747869,97.775
642, 11:24:06,63.848248,180.272017,888.348011,97.775
643, 11:24:06,63.86261,180.327415,888.353693,97.775
644, 11:24:06,63.92803,180.566288,889.269886,97.775
645, 11:24:06,64.037445,180.978338,890.867188,97.775
646, 11:24:06,64.10614,181.417377,892.211648,97.775
647, 11:24:06,64.153054,181.973366,893.604403,97.775
648, 11:24:06,64.245028,182.410748,894.901989,97.775
649, 11:24:06,64.344105,182.922467,896.566051,97.775
650, 11:24:06,64.433278,183.437145,897.43821,97.775
651, 11:24:06,64.449455,183.824692,898.84304,97.775
652, 11:24:06,64.550387,184.27616,899.193892,97.775
653, 11:24:06,64.611703,184.623935,900.638494,97.775
654, 11:24:06,64.704348,185.146662,901.536222,97.775
655, 11:24:06,64.814354,185.724313,904.138494,97.775
656, 11:24:06,64.913313,186.298177,905.587358,97.775
657, 11:24:06,64.821259,186.289062,904.896307,97.775
658, 11:24:06,64.352786,184.446615,897.78196,97.775
659, 11:24:06,63.844539,181.840909,890.275568,97.775
660, 11:24:07,63.572009,179.876065,884.037642,97.775
661, 11:24:07,63.5,178.945549,883.127841,97.775
662, 11:24:07,63.497396,178.59446,882.535511,97.775
663, 11:24:07,63.491162,178.348011,883.480114,97.775
664, 11:24:07,63.500513,178.24491,882.685369,97.775
665, 11:24:07,63.557449,178.351799,883.5625,97.775
666, 11:24:07,63.638652,178.715199,884.992898,97.775
667, 11:24:07,63.672033,178.902936,884.909091,97.775
668, 11:24:07,63.673493,178.956558,885.534801,97.775
669, 11:24:07,63.678583,179.040009,885.978693,97.775
670, 11:24:07,63.743371,179.254735,885.664773,97.775
671, 11:24:07,63.856061,179.756629,888.053977,97.775
672, 11:24:07,63.961372,180.318774,889.475142,97.775
673, 11:24:07,64.064907,180.919626,891.199574,97.775
674, 11:24:07,64.166469,181.559541,892.419744,97.775
675, 11:24:07,64.220999,182.067827,893.56321,97.775
676, 11:24:07,64.35468,182.647846,895.318892,97.775
677, 11:24:07,64.410354,183.151042,897.181818,97.775
678, 11:24:07,64.529474,183.736624,898.46804,97.775
679, 11:24:07,64.606495,184.246567,900.152699,97.775
680, 11:24:07,64.714962,184.825758,901.772727,97.775
681, 11:24:07,64.816643,185.482126,903.838778,97.775
682, 11:24:07,64.895005,186.00367,904.147017,97.775
683, 11:24:07,65.028764,186.676728,907.367188,97.775
684, 11:24:07,65.131195,187.360914,908.617188,97.775
685, 11:24:07,65.234099,187.964607,910.540483,97.775
686, 11:24:07,65.315893,188.621449,912.174716,97.775
687, 11:24:07,65.420889,189.211056,913.635653,97.775
688, 11:24:07,65.520833,189.986269,915.082386,97.775
689, 11:24:07,65.595092,190.66785,917.100852,97.775
690, 11:24:08,65.718316,191.289891,918.418324,97.775
691, 11:24:08,65.827099,191.923532,920.09233,97.775
692, 11:24:08,65.815538,192.256274,919.830256,97.775
693, 11:24:08,65.357915,190.628196,913.240767,97.775
694, 11:24:08,64.673414,187.595526,904.127131,97.775
695, 11:24:08,64.245028,184.882812,897.245739,97.775
696, 11:24:08,64.08791,183.310606,893.889205,97.775
697, 11:24:08,64.07339,182.700758,892.880682,97.775
698, 11:24:08,64.105469,182.600497,892.850142,97.775
699, 11:24:08,64.126539,182.528291,892.950994,97.775
700, 11:24:08,64.165286,182.612808,893.477983,97.775
701, 11:24:08,64.22968,182.727391,894.023438,97.775
702, 11:24:08,64.236032,182.837831,894.78267,97.775
703, 11:24:08,64.205256,182.745975,893.598011,97.775
704, 11:24:08,64.178662,182.66714,893.835227,97.775
705, 11:24:08,64.18892,182.699811,894.042614,97.775
706, 11:24:08,64.251065,182.97526,895.095881,97.775
707, 11:24:08,64.368332,183.448272,896.550426,97.775
708, 11:24:08,64.457465,183.898438,897.927557,97.775
709, 11:24:08,64.579545,184.475852,899.522727,97.775
710, 11:24:08,64.670967,185.037524,900.779119,97.775
711, 11:24:08,64.741043,185.507221,902.503551,97.775
712, 11:24:08,64.847104,186.077296,903.81321,97.775
713, 11:24:08,64.860006,186.507102,904.488636,97.775
714, 11:24:08,64.928228,187.012429,906.12571,97.775
715, 11:24:08,65.026634,187.623935,907.661222,97.775
716, 11:24:08,65.123935,188.074929,909.074574,97.775
717, 11:24:08,65.237374,188.715909,911.326705,97.775
718, 11:24:08,65.308949,189.312737,911.992898,97.775
719, 11:24:08,65.136324,188.9317,910.175426,97.775
720, 11:24:09,64.620975,186.653172,901.200284,97.775
721, 11:24:09,64.163826,184.183712,895.323864,97.775
722, 11:24:09,63.929451,182.580966,890.744318,97.775
723, 11:24:09,63.912839,181.961056,889.93679,97.775
724, 11:24:09,63.954111,181.94188,889.93821,97.775
725, 11:24:09,64.002091,181.987334,890.912642,97.775
726, 11:24:09,64.152462,182.428504,892.840909,97.775
727, 11:24:09,64.218119,182.812027,894.491477,97.775
728, 11:24:09,64.23761,182.991714,894.007102,97.775
729, 11:24:09,64.200797,182.958452,894.088778,97.775
730, 11:24:09,64.182962,182.909683,893.520597,97.775
731, 11:24:09,64.181621,182.881037,893.314631,97.775
732, 11:24:09,64.257142,183.190933,894.412642,97.775
733, 11:24:09,64.358467,183.633641,896.034801,97.775
734, 11:24:09,64.456795,184.135062,897.742188,97.775
735, 11:24:09,64.598169,184.73911,899.730114,97.775
736, 11:24:09,64.672427,185.295691,901.044034,97.775
737, 11:24:09,64.76018,185.807528,902.819602,97.775
738, 11:24:09,64.852983,186.365767,903.964489,97.775
739, 11:24:09,64.903212,186.810014,906.033381,97.775
740, 11:24:09,64.998501,187.345881,906.569602,97.775
741, 11:24:09,65.045099,187.803385,907.476562,97.775
742, 11:24:09,65.125395,188.360559,908.785511,97.775
743, 11:24:09,65.185448,188.874053,910.298295,97.775
744, 11:24:09,65.246449,189.431108,911.325284,97.775
745, 11:24:09,65.371725,190.107599,913.387074,97.775
746, 11:24:09,65.251776,189.877959,911.543324,97.775
747, 11:24:09,64.648319,187.330848,902.96804,97.775
748, 11:24:09,64.042969,184.291785,893.835938,97.775
749, 11:24:09,63.763573,182.062027,888.78125,97.775
750, 11:24:10,63.660196,180.91572,885.951705,97.775
751, 11:24:10,63.666627,180.551965,885.987926,97.775
752, 11:24:10,63.67657,180.289654,885.53054,97.775
753, 11:24:10,63.665286,180.137429,885.401278,97.775
754, 11:24:10,63.750039,180.353812,886.611506,97.775
755, 11:24:10,63.803109,180.523438,887.18608,97.775
756, 11:24:10,63.806937,180.607836,887.470881,97.775
757, 11:24:10,63.811711,180.637311,887.309659,97.775
758, 11:24:10,63.803741,180.595881,887.677557,97.775
759, 11:24:10,63.839015,180.662879,887.693182,97.775
760, 11:24:10,63.935685,181.08215,889.461648,97.775
761, 11:24:10,64.028093,181.553504,891.4375,97.775
762, 11:24:10,64.129143,182.110914,892.117188,97.775
763, 11:24:10,64.262863,182.721354,893.870739,97.775
764, 11:24:10,64.349077,183.291548,895.658381,97.775
765, 11:24:10,64.432173,183.757221,897.182528,97.775
766, 11:24:10,64.528961,184.301373,898.49858,97.775
767, 11:24:10,64.608033,184.816051,900.328125,97.775
768, 11:24:10,64.667219,185.254498,900.97017,97.775
769, 11:24:10,64.765901,185.746094,902.578835,97.775
770, 11:24:10,64.844776,186.437737,903.65767,97.775
771, 11:24:10,64.967408,186.986506,905.697443,97.775
772, 11:24:10,65.03997,187.603812,907.577415,97.775
773, 11:24:10,65.119003,188.205019,908.997159,97.775
774, 11:24:10,65.222498,188.772609,910.510653,97.775
775, 11:24:10,65.223722,189.453362,911.288352,97.775
776, 11:24:10,65.405224,190.084044,914.666193,97.775
777, 11:24:10,65.493647,190.754143,915.90554,97.775
778, 11:24:10,65.593987,191.256392,917.089489,97.775
779, 11:24:10,65.699298,191.905185,919.178267,97.775
780, 11:24:11,65.803109,192.486979,920.137784,97.8
781, 11:24:11,65.689552,192.398201,918.053977,97.8
782, 11:24:11,64.968316,189.789891,908.429688,97.8
783, 11:24:11,64.318892,186.114347,899.240057,97.8
784, 11:24:11,63.90404,183.374527,891.28125,97.8
785, 11:24:11,63.736111,181.84517,888.221591,97.8
786, 11:24:11,63.726523,181.147846,887.446733,97.8
787, 11:24:11,63.708097,180.691051,886.765625,97.8
788, 11:24:11,63.694129,180.419981,885.889205,97.8
789, 11:24:11,63.692077,180.285511,886.136364,97.8
790, 11:24:11,63.75797,180.429688,886.640625,97.8
791, 11:24:11,63.786024,180.493963,887.111506,97.8
792, 11:24:11,63.791785,180.518821,887.075994,97.8
793, 11:24:11,63.765507,180.423414,886.645597,97.8
794, 11:24:11,63.792771,180.493371,886.926136,97.8
795, 11:24:11,63.855824,180.642756,887.458807,97.8
796, 11:24:11,63.954743,181.08866,888.855824,97.8
797, 11:24:11,64.068497,181.610322,891.028409,97.8
798, 11:24:11,64.183278,182.196615,892.600142,97.8
799, 11:24:11,64.239504,182.734138,894.259943,97.8
800, 11:24:11,64.357639,183.33428,895.536932,97.8
801, 11:24:11,64.455808,183.851799,897.178977,97.8
802, 11:24:11,64.507615,184.306937,898.37571,97.8
803, 11:24:11,64.592882,184.81321,899.521307,97.8
804, 11:24:11,64.728062,185.433712,901.522727,97.8
805, 11:24:11,64.833531,186.037524,903.509233,97.8
806, 11:24:11,64.865688,186.747633,904.803977,97.8
807, 11:24:11,64.982797,187.296875,906.556818,97.8
808, 11:24:11,65.122751,187.923651,908.678267,97.8
809, 11:24:11,65.230863,188.595526,910.703835,97.8
810, 11:24:12,65.319839,189.174006,911.964489,97.8
811, 11:24:12,65.422822,189.919508,914.335227,97.8
812, 11:24:12,65.563289,190.546402,916.167614,97.8
813, 11:24:12,65.667653,191.264323,917.293324,97.8
814, 11:24:12,65.524266,191.110677,915.558949,97.8
815, 11:24:12,64.82852,188.443892,906.447443,97.8
816, 11:24:12,64.210109,185.205611,896.742188,97.8
817, 11:24:12,63.882852,182.81617,890.246449,97.8
818, 11:24:12,63.775608,181.698982,888.134233,97.8
819, 11:24:12,63.773477,181.281132,887.644176,97.8
820, 11:24:12,63.810172,181.183357,887.725142,97.8
821, 11:24:12,63.807213,181.071259,887.924716,97.8
822, 11:24:12,63.880642,181.297704,888.703835,97.8
823, 11:24:12,63.95782,181.612098,890.039062,97.8
824, 11:24:12,63.954427,181.744437,889.585938,97.8
825, 11:24:12,63.942787,181.671638,889.646307,97.8
826, 11:24:12,63.947009,181.630327,889.764915,97.8
827, 11:24:12,63.96729,181.716264,890.351562,97.8
828, 11:24:12,64.043442,182.053149,891.120028,97.8
829, 11:24:12,64.167614,182.627367,893.25,97.8
830, 11:24:12,64.297427,183.154119,895.143466,97.8
831, 11:24:12,64.385062,183.804806,896.854403,97.8
832, 11:24:12,64.490372,184.439394,898.951705,97.8
833, 11:24:12,64.584596,184.949337,900.082386,97.8
834, 11:24:12,64.642045,185.474905,901.110795,97.8
835, 11:24:12,64.744476,185.889205,902.866477,97.8
836, 11:24:12,64.801689,186.459991,903.174716,97.8
837, 11:24:12,64.873303,187.093868,904.708097,97.8
838, 11:24:12,65.000631,187.612689,906.835227,97.8
839, 11:24:12,65.018466,187.978693,907.414773,97.8
840, 11:24:13,64.599313,186.540365,901.50071,97.8
841, 11:24:13,64.032434,183.849195,892.649148,97.8
842, 11:24:13,63.645478,181.638139,886.629972,97.8
843, 11:24:13,63.509943,180.372633,883.860795,97.8
844, 11:24:13,63.511719,180.056937,884.043324,97.8
845, 11:24:13,63.568892,180.035748,884.40767,97.8
846, 11:24:13,63.655579,180.261719,884.928267,97.8
847, 11:24:13,63.793008,180.690104,887.02983,97.8
848, 11:24:13,63.826389,181.060606,888.099432,97.8
849, 11:24:13,63.810843,181.098248,888.083807,97.8
850, 11:24:13,63.777896,181.011719,887.024858,97.8
851, 11:24:13,63.766296,180.98402,886.759233,97.8
852, 11:24:13,63.797033,181.100379,887.34375,97.8
853, 11:24:13,63.897096,181.467803,889.298295,97.8
854, 11:24:13,64.001342,181.982244,890.569602,97.8
855, 11:24:13,64.118332,182.659446,892.232244,97.8
856, 11:24:13,64.248856,183.323272,894.340199,97.8
857, 11:24:13,64.348682,183.86849,895.480824,97.8
858, 11:24:13,64.422664,184.436553,896.653409,97.8
859, 11:24:13,64.506944,184.874527,898.784091,97.8
860, 11:24:13,64.601168,185.38589,900.607955,97.8
861, 11:24:13,64.651989,185.857008,901.048295,97.8
862, 11:24:13,64.746409,186.367069,903.398438,97.8
863, 11:24:13,64.835069,186.93892,905.321023,97.8
864, 11:24:13,64.919152,187.547704,905.709517,97.8
865, 11:24:13,64.994081,188.165956,907.507102,97.8
866, 11:24:13,65.080532,188.752012,909.446733,97.8
867, 11:24:13,65.165641,189.290956,910.28267,97.8
868, 11:24:13,65.225063,189.916193,911.454545,97.8
869, 11:24:13,65.362176,190.551491,913.578835,97.8
870, 11:24:14,65.466422,191.104285,913.776278,97.825
871, 11:24:14,65.243095,190.627959,911.747869,97.825
872, 11:24:14,64.440104,187.551847,901.296875,97.825
873, 11:24:14,63.794074,183.939512,890.921165,97.825
874, 11:24:14,63.406013,181.38518,884.134943,97.825
875, 11:24:14,63.28417,180.035275,880.40483,97.825
876, 11:24:14,63.259706,179.390862,880.052557,97.825
877, 11:24:14,63.239268,179.077652,880.255682,97.825
878, 11:24:14,63.240451,178.830729,879.481534,97.825
879, 11:24:14,63.262902,178.898556,880.439631,97.825
880, 11:24:14,63.315933,179.078954,880.666903,97.825
881, 11:24:14,63.347538,179.175663,881.832386,97.825
882, 11:24:14,63.357126,179.193537,881.308949,97.825
883, 11:24:14,63.334991,179.139915,881.478693,97.825
884, 11:24:14,63.386166,179.245147,880.618608,97.825
885, 11:24:14,63.453243,179.553385,882.678267,97.825
886, 11:24:14,63.557015,180.052202,883.804688,97.825
887, 11:24:14,63.679293,180.630682,886.153409,97.825
888, 11:24:14,63.775923,181.264323,887.546165,97.825
889, 11:24:14,63.859651,181.762192,888.942472,97.825
890, 11:24:14,63.923177,182.252959,890.378551,97.825
891, 11:24:14,64.053267,182.830729,892.265625,97.825
892, 11:24:14,64.147057,183.378196,894.152699,97.825
893, 11:24:14,64.197601,183.791193,894.727273,97.825
894, 11:24:14,64.313684,184.332623,896.31392,97.825
895, 11:24:14,64.400489,184.858191,897.950284,97.825
896, 11:24:14,64.484257,185.455137,899.631392,97.825
897, 11:24:14,64.584201,186.099669,901.308239,97.825
898, 11:24:14,64.561908,186.200402,900.921165,97.825
899, 11:24:14,63.980429,184.317235,893.321023,97.825
900, 11:24:15,63.33069,181.165365,882.972301,97.825
901, 11:24:15,62.996015,178.789181,876.269176,97.825
902, 11:24:15,62.857994,177.541312,873.725142,97.825
903, 11:24:15,62.875829,177.078717,874.560369,97.825
904, 11:24:15,62.883602,176.921638,875.129261,97.825
905, 11:24:15,62.874842,176.855114,874.46875,97.825
906, 11:24:15,62.961135,177.131037,875.104403,97.825
907, 11:24:15,63.036222,177.484138,877.06108,97.825
908, 11:24:15,63.085661,177.711056,876.931108,97.825
909, 11:24:15,63.09154,177.773201,877.582386,97.825
910, 11:24:15,63.081163,177.813565,876.830256,97.825
911, 11:24:15,63.120107,177.986742,877.948864,97.825
912, 11:24:15,63.182528,178.303741,878.481534,97.825
913, 11:24:15,63.294231,178.927202,880.912642,97.825
914, 11:24:15,63.447719,179.492306,882.62429,97.825
915, 11:24:15,63.571851,180.30599,884.705256,97.825
916, 11:24:15,63.683041,180.880563,886.03054,97.825
917, 11:24:15,63.768742,181.542969,887.166903,97.825
918, 11:24:15,63.851602,182.133878,888.740767,97.825
919, 11:24:15,63.964173,182.663352,890.960227,97.825
920, 11:24:15,64.063644,183.216501,892.21946,97.825
921, 11:24:15,64.210701,183.946496,894.661932,97.825
922, 11:24:15,64.29723,184.563092,896.284801,97.825
923, 11:24:15,64.393348,185.166785,898.62571,97.825
924, 11:24:15,64.511127,185.858665,900.044034,97.825
925, 11:24:15,64.632142,186.582978,902.358665,97.825
926, 11:24:15,64.751539,187.343632,904.269176,97.825
927, 11:24:15,64.88443,188.031132,906.24929,97.825
928, 11:24:15,64.99203,188.720881,907.68892,97.825
929, 11:24:15,65.107757,189.421283,909.414062,97.825
930, 11:24:16,65.151239,190.023319,909.980824,97.825
931, 11:24:16,65.286932,190.611269,912.448864,97.825
932, 11:24:16,65.388692,191.281132,914.269176,97.825
933, 11:24:16,65.510338,191.974669,915.828125,97.825
934, 11:24:16,65.358665,191.757812,914.106534,97.825
935, 11:24:16,64.549085,188.926136,903.298295,97.825
936, 11:24:16,63.829151,185.563684,893.544034,97.825
937, 11:24:16,63.467527,182.899266,886.901278,97.825
938, 11:24:16,63.35172,181.618608,883.191761,97.825
939, 11:24:16,63.36119,181.254972,883.768466,97.825
940, 11:24:16,63.383325,181.115885,883.919744,97.825
941, 11:24:16,63.43166,181.174716,884.190341,97.825
942, 11:24:16,63.4884,181.348722,884.90767,97.825
943, 11:24:16,63.575639,181.709399,886.557528,97.825
944, 11:24:16,63.558081,181.741951,885.764205,97.825
945, 11:24:16,63.503946,181.55161,884.744318,97.825
946, 11:24:16,63.501973,181.418797,884.990057,97.825
947, 11:24:16,63.488991,181.52474,885.389915,97.825
948, 11:24:16,63.573745,181.779001,886.21946,97.825
949, 11:24:16,63.682331,182.199929,887.668324,97.825
950, 11:24:16,63.82264,182.879853,889.137074,97.825
951, 11:24:16,63.91785,183.450521,890.958807,97.825
952, 11:24:16,64.038352,184.152462,893.633523,97.825
953, 11:24:16,64.111229,184.678859,894.81179,97.825
954, 11:24:16,64.155974,185.011955,895.09446,97.825
955, 11:24:16,64.245068,185.582741,896.865767,97.825
956, 11:24:16,64.273674,185.988636,897.693182,97.825
957, 11:24:16,64.413865,186.679096,899.841619,97.825
958, 11:24:16,64.512034,187.325876,901.151278,97.825
959, 11:24:16,64.597025,187.830848,903.382812,97.825
960, 11:24:17,64.58136,188.104403,903.274148,97.825
961, 11:24:17,64.076823,186.479522,896.303267,97.825
962, 11:24:17,63.541154,183.628196,887.411222,97.825
963, 11:24:17,63.138376,181.265033,880.897017,97.825
964, 11:24:17,62.990728,180.003906,877.327415,97.825
965, 11:24:17,62.973485,179.711648,878.03125,97.825
966, 11:24:17,63.027068,179.691525,878.370739,97.825
967, 11:24:17,63.09446,179.946259,879.882102,97.825
968, 11:24:17,63.229127,180.454427,881.334517,97.825
969, 11:24:17,63.319681,180.688684,882.367898,97.825
970, 11:24:17,63.286261,180.770715,882.033381,97.825
971, 11:24:17,63.258207,180.637311,882.173295,97.825
972, 11:24:17,63.208097,180.560843,881.384943,97.825
973, 11:24:17,63.260851,180.704901,882.027699,97.825
974, 11:24:17,63.356416,181.050781,882.870028,97.825
975, 11:24:17,63.489386,181.60973,884.871449,97.825
976, 11:24:17,63.618726,182.241596,886.631392,97.825
977, 11:24:17,63.704979,182.780185,888.431108,97.825
978, 11:24:17,63.817156,183.382812,890.143466,97.825
979, 11:24:17,63.895833,183.956913,891.417614,97.825
980, 11:24:17,63.964686,184.452296,893.284801,97.825
981, 11:24:17,64.047546,185.014323,894.674006,97.825
982, 11:24:17,64.137232,185.492661,896.098011,97.825
983, 11:24:17,64.198035,186.012666,897.692472,97.825
984, 11:24:17,64.284328,186.497396,898.950284,97.825
985, 11:24:17,64.353733,187.060724,900.600142,97.825
986, 11:24:17,64.46224,187.666548,901.808949,97.825
987, 11:24:17,64.531526,188.118726,902.706676,97.825
988, 11:24:17,64.632852,188.718632,904.71804,97.825
989, 11:24:17,64.758483,189.303859,906.46804,97.825
990, 11:24:18,64.826468,189.831676,907.072443,97.825
991, 11:24:18,64.448666,188.735204,902.200994,97.825
992, 11:24:18,63.590357,185.405066,890.396307,97.825
993, 11:24:18,63.033183,181.975971,880.90696,97.825
994, 11:24:18,62.761443,179.796165,875.393466,97.825
995, 11:24:18,62.633957,178.854522,873.806108,97.825
996, 11:24:18,62.66789,178.312382,872.649858,97.825
997, 11:24:18,62.653804,178.062263,872.884943,97.825
998, 11:24:18,62.66063,177.801018,872.010653,97.825
999, 11:24:18,62.680595,177.913944,872.580256,97.825
1000, 11:24:18,62.757655,178.107718,873.853693,97.825
1001, 11:24:18,62.762666,178.175781,874.361506,97.825
1002, 11:24:18,62.753985,178.095289,873.489347,97.825
1003, 11:24:18,62.751854,178.087476,873.820312,97.825
1004, 11:24:18,62.777423,178.179806,874.408381,97.825
1005, 11:24:18,62.872475,178.539299,875.90625,97.825
1006, 11:24:18,62.988597,179.070431,877.033381,97.825
1007, 11:24:18,63.113005,179.593277,879.710227,97.825
1008, 11:24:18,63.216264,180.116122,880.708097,97.825
1009, 11:24:18,63.316446,180.650568,881.403409,97.825
1010, 11:24:18,63.422861,181.258641,884.046165,97.825
1011, 11:24:18,63.51669,181.759351,885.757812,97.825
1012, 11:24:18,63.589331,182.261364,887.465909,97.825
1013, 11:24:18,63.653212,182.653291,887.502131,97.825
1014, 11:24:18,63.714134,183.196851,888.408381,97.825
1015, 11:24:18,63.828362,183.7616,890.669034,97.825
1016, 11:24:18,63.934975,184.423295,891.792614,97.825
1017, 11:24:18,63.987768,184.895123,894.37642,97.825
1018, 11:24:18,64.121607,185.553741,895.771307,97.825
1019, 11:24:18,64.197443,186.136837,897.372159,97.825
1020, 11:24:19,64.305279,186.759588,898.926847,97.825
1021, 11:24:19,64.449929,187.451113,901.647017,97.825
1022, 11:24:19,64.44989,187.696259,901.21733,97.825
1023, 11:24:19,63.812579,185.910275,893.791193,97.825
1024, 11:24:19,63.138139,182.430516,882.441051,97.825
1025, 11:24:19,62.642914,179.48982,874.00142,97.825
1026, 11:24:19,62.436592,177.877012,870.03196,97.825
1027, 11:24:19,62.387981,177.104285,869.435369,97.825
1028, 11:24:19,62.404198,176.799716,869.477273,97.825
1029, 11:24:19,62.362176,176.443537,868.794744,97.825
1030, 11:24:19,62.381353,176.407789,869.477983,97.825
1031, 11:24:19,62.479009,176.647254,869.53125,97.825
1032, 11:24:19,62.482876,176.754972,870.171875,97.825
1033, 11:24:19,62.524306,176.869792,870.698864,97.825
1034, 11:24:19,62.500908,176.818063,869.692472,97.825
1035, 11:24:19,62.524306,176.853693,870.454545,97.825
1036, 11:24:19,62.574495,177.124053,871.068182,97.825
1037, 11:24:19,62.733467,177.654474,873.415483,97.825
1038, 11:24:19,62.78855,178.079664,873.679688,97.825
1039, 11:24:19,62.91568,178.760298,876.692472,97.825
1040, 11:24:19,63.044152,179.346473,877.794744,97.825
1041, 11:24:19,63.12354,179.944484,879.71804,97.825
1042, 11:24:19,63.252683,180.442708,881.375,97.825
1043, 11:24:19,63.337871,181.043916,882.308949,97.825
1044, 11:24:19,63.424676,181.482363,883.757812,97.825
1045, 11:24:19,63.496252,182.008641,885.600142,97.825
1046, 11:24:19,63.572364,182.496922,886.330966,97.825
1047, 11:24:19,63.686711,183.201705,888.710227,97.825
1048, 11:24:19,63.819839,183.833097,890.401989,97.825
1049, 11:24:19,63.908736,184.418442,892.09304,97.825
1050, 11:24:20,63.839607,184.435014,891.519176,97.825
1051, 11:24:20,63.26164,182.167495,882.419744,97.825
1052, 11:24:20,62.641888,179.221591,872.951705,97.825
1053, 11:24:20,62.259509,177.041785,868.165483,97.825
1054, 11:24:20,62.155816,175.847183,865.540483,97.825
1055, 11:24:20,62.184501,175.638731,865.642045,97.825
1056, 11:24:20,62.225024,175.499882,865.834517,97.825
1057, 11:24:20,62.275608,175.562145,866.901278,97.825
1058, 11:24:20,62.374882,175.907789,867.977983,97.825
1059, 11:24:20,62.428109,176.258286,869.007102,97.825
1060, 11:24:20,62.45711,176.426728,869.324574,97.825
1061, 11:24:20,62.434265,176.372396,869.444602,97.825
1062, 11:24:20,62.462397,176.420336,869.340199,97.825
1063, 11:24:20,62.470565,176.674953,868.973011,97.825
1064, 11:24:20,62.596196,177.200047,871.453125,97.825
1065, 11:24:20,62.663155,177.675071,872.996449,97.825
1066, 11:24:20,62.804096,178.394768,874.459517,97.825
1067, 11:24:20,63.011955,179.184541,876.743608,97.825
1068, 11:24:20,63.106218,179.850379,878.664773,97.825
1069, 11:24:20,63.236664,180.520597,881.294034,97.825
1070, 11:24:20,63.306937,180.984257,882.181108,97.825
1071, 11:24:20,63.399621,181.576231,883.360795,97.825
1072, 11:24:20,63.509272,182.057173,885.294744,97.825
1073, 11:24:20,63.577139,182.6817,887.21804,97.825
1074, 11:24:20,63.685014,183.252959,887.986506,97.825
1075, 11:24:20,63.78855,183.886955,890.691051,97.825
1076, 11:24:20,63.911774,184.52178,891.840909,97.825
1077, 11:24:20,63.998146,185.142637,893.753551,97.825
1078, 11:24:20,64.094815,185.805753,895.536222,97.825
1079, 11:24:20,64.214015,186.505208,897.934659,97.825
1080, 11:24:21,64.344066,187.147254,899.122159,97.8
1081, 11:24:21,64.452928,187.849313,901.541903,97.8
1082, 11:24:21,64.541509,188.484375,903.213068,97.8
1083, 11:24:21,64.217172,187.570076,898.349432,97.8
1084, 11:24:21,63.383523,184.516572,886.713068,97.8
1085, 11:24:21,62.749605,181.213778,877.021307,97.8
1086, 11:24:21,62.498146,179.160156,871.668324,97.8
1087, 11:24:21,62.430161,178.273438,870.325284,97.8
1088, 11:24:21,62.467724,178.094934,871.041193,97.8
1089, 11:24:21,62.481968,178.039654,871.235085,97.8
1090, 11:24:21,62.52545,178.175308,871.443892,97.8
1091, 11:24:21,62.635535,178.456795,873.539062,97.8
1092, 11:24:21,62.661892,178.551965,873.450994,97.8
1093, 11:24:21,62.642992,178.491951,873.659091,97.8
1094, 11:24:21,62.605153,178.276634,872.114347,97.8
1095, 11:24:21,62.602036,178.265388,872.558239,97.8
1096, 11:24:21,62.634628,178.419508,872.758523,97.8
1097, 11:24:21,62.701034,178.757457,873.931108,97.8
1098, 11:24:21,62.87283,179.313092,875.796165,97.8
1099, 11:24:21,62.965199,179.908854,877.75142,97.8
1100, 11:24:21,63.070312,180.44768,878.62642,97.8
1101, 11:24:21,63.176768,180.961648,881.022727,97.8
1102, 11:24:21,63.253235,181.418324,881.74858,97.8
1103, 11:24:21,63.3256,181.87358,883.028409,97.8
1104, 11:24:21,63.391967,182.275805,884.223011,97.8
1105, 11:24:21,63.483467,182.852391,885.727983,97.8
1106, 11:24:21,63.567353,183.286813,887.044744,97.8
1107, 11:24:21,63.586095,183.570786,887.538352,97.8
1108, 11:24:21,63.151515,182.07339,881.423295,97.8
1109, 11:24:21,62.509509,179.128433,872.165483,97.8
1110, 11:24:22,62.057055,176.608665,864.90767,97.8
1111, 11:24:22,61.871212,175.16572,862.670455,97.8
1112, 11:24:22,61.867503,174.657434,861.734375,97.8
1113, 11:24:22,61.906802,174.525331,862.336648,97.8
1114, 11:24:22,61.92511,174.505919,862.515625,97.8
1115, 11:24:22,62.030698,174.843987,864.603693,97.8
1116, 11:24:22,62.077296,175.166548,864.024858,97.8
1117, 11:24:22,62.155224,175.393229,865.663352,97.8
1118, 11:24:22,62.11486,175.407079,864.84304,97.8
1119, 11:24:22,62.14611,175.345052,865.740767,97.8
1120, 11:24:22,62.160117,175.462831,865.24858,97.8
1121, 11:24:22,62.210938,175.735559,866.228693,97.8
1122, 11:24:22,62.354206,176.314986,867.605824,97.8
1123, 11:24:22,62.466146,176.872869,869.921875,97.8
1124, 11:24:22,62.558712,177.505682,871.147727,97.8
1125, 11:24:22,62.696575,178.049953,873.257102,97.8
1126, 11:24:22,62.788984,178.686553,874.394886,97.8
1127, 11:24:22,62.879104,179.107955,875.980114,97.8
1128, 11:24:22,62.910314,179.560961,877.147017,97.8
1129, 11:24:22,63.032434,180.116714,878.041193,97.8
1130, 11:24:22,63.114268,180.589015,879.480114,97.8
1131, 11:24:22,63.2384,181.206676,882.03267,97.8
1132, 11:24:22,63.304056,181.68679,883.052557,97.8
1133, 11:24:22,63.400213,182.235677,884.328835,97.8
1134, 11:24:22,63.491162,182.786932,885.519886,97.8
1135, 11:24:22,63.612453,183.4491,887.71733,97.8
1136, 11:24:22,63.692116,184.023793,889.37571,97.8
1137, 11:24:22,63.754104,184.598485,891.167614,97.8
1138, 11:24:22,63.891296,185.27758,893.523438,97.8
1139, 11:24:22,63.959399,185.801491,895.175426,97.8
1140, 11:24:23,63.729246,185.270597,891.31108,97.8
1141, 11:24:23,62.933081,181.985795,879.670455,97.8
1142, 11:24:23,62.230942,178.165365,867.946733,97.8
1143, 11:24:23,61.847617,175.695312,863.041193,97.8
1144, 11:24:23,61.760456,174.369437,859.591619,97.8
1145, 11:24:23,61.738202,173.739228,859.855824,97.8
1146, 11:24:23,61.756195,173.531368,859.62571,97.8
1147, 11:24:23,61.728062,173.203598,859.917614,97.8
1148, 11:24:23,61.805911,173.355232,860.489347,97.8
1149, 11:24:23,61.867069,173.542022,861.195312,97.8
1150, 11:24:23,61.918837,173.734257,860.993608,97.8
1151, 11:24:23,61.903606,173.749645,861.898438,97.8
1152, 11:24:23,61.89465,173.7384,860.589489,97.8
1153, 11:24:23,61.944642,173.854285,862.193892,97.8
1154, 11:24:23,62.019492,174.182055,862.887784,97.8
1155, 11:24:23,62.139402,174.655895,864.514915,97.8
1156, 11:24:23,62.262547,175.284328,865.234375,97.8
1157, 11:24:23,62.38297,175.954309,867.853693,97.8
1158, 11:24:23,62.488952,176.554451,868.650568,97.8
1159, 11:24:23,62.54506,177.148911,869.802557,97.8
1160, 11:24:23,62.646465,177.625473,871.522727,97.8
1161, 11:24:23,62.71224,178.16134,873.439631,97.8
1162, 11:24:23,62.834122,178.75947,874.855114,97.8
1163, 11:24:23,62.918245,179.197443,876.392045,97.8
1164, 11:24:23,63.01523,179.810369,877.541193,97.8
1165, 11:24:23,63.140901,180.345052,879.084517,97.8
1166, 11:24:23,63.277896,181.010298,881.607244,97.8
1167, 11:24:23,63.348761,181.545336,882.479403,97.8
1168, 11:24:23,63.46946,182.210464,884.575284,97.8
1169, 11:24:23,63.596236,182.841738,886.743608,97.8
1170, 11:24:24,63.731021,183.581321,888.976562,97.775
1171, 11:24:24,63.786498,184.104285,889.912642,97.775
1172, 11:24:24,63.3881,182.946023,884.53125,97.775
1173, 11:24:24,62.620739,179.639205,873.667614,97.775
1174, 11:24:24,62.016572,176.598011,863.815341,97.775
1175, 11:24:24,61.750118,174.649029,861.348722,97.775
1176, 11:24:24,61.758917,173.791903,859.580966,97.775
1177, 11:24:24,61.762942,173.542614,860.190341,97.775
1178, 11:24:24,61.769413,173.467803,858.724432,97.775
1179, 11:24:24,61.836924,173.62062,860.132812,97.775
1180, 11:24:24,61.944444,174.028883,860.823864,97.775
1181, 11:24:24,62.003354,174.363281,862.693892,97.775
1182, 11:24:24,62.006037,174.429569,862.526278,97.775
1183, 11:24:24,61.977154,174.410156,862.597301,97.775
1184, 11:24:24,61.988084,174.365767,862.194602,97.775
1185, 11:24:24,62.023319,174.645241,863.65554,97.775
1186, 11:24:24,62.151357,175.114583,864.019886,97.775
1187, 11:24:24,62.268742,175.721946,866.260653,97.775
1188, 11:24:24,62.402738,176.396662,868.37429,97.775
1189, 11:24:24,62.524306,177.025568,869.6875,97.775
1190, 11:24:24,62.615846,177.658617,871.727273,97.775
1191, 11:24:24,62.716896,178.294152,873.517756,97.775
1192, 11:24:24,62.79727,178.759233,874.240057,97.775
1193, 11:24:24,62.887074,179.305634,875.862216,97.775
1194, 11:24:24,62.950639,179.748224,877.017756,97.775
1195, 11:24:24,63.071693,180.320194,878.245028,97.775
1196, 11:24:24,63.191998,180.998816,880.31392,97.775
1197, 11:24:24,63.331005,181.638849,881.909801,97.775
1198, 11:24:24,63.222735,181.515743,881.09446,97.775
1199, 11:24:24,62.607086,179.358665,872.524148,97.775
1200, 11:24:25,61.971196,176.422585,864.115057,97.775
1201, 11:24:25,61.657158,174.330848,859.323153,97.775
1202, 11:24:25,61.60685,173.45786,857.457386,97.775
1203, 11:24:25,61.648872,173.296046,858.611506,97.775
1204, 11:24:25,61.713699,173.399621,858.71875,97.775
1205, 11:24:25,61.811632,173.769176,860.711648,97.775
1206, 11:24:25,61.918837,174.32706,861.720881,97.775
1207, 11:24:25,61.987058,174.640152,862.159091,97.775
1208, 11:24:25,61.972854,174.741951,861.747159,97.775
1209, 11:24:25,61.937066,174.767164,862.137074,97.775
1210, 11:24:25,61.967251,174.836884,862.203125,97.775
1211, 11:24:25,62.037879,175.06108,863.034091,97.775
1212, 11:24:25,62.102431,175.557765,864.349432,97.775
1213, 11:24:25,62.250158,176.236742,867.465909,97.775
1214, 11:24:25,62.379616,176.817353,868.310369,97.775
1215, 11:24:25,62.485795,177.403409,870.338068,97.775
1216, 11:24:25,62.572246,178.031132,870.786222,97.775
1217, 11:24:25,62.661577,178.486624,872.720881,97.775
1218, 11:24:25,62.751815,178.971354,873.37358,97.775
1219, 11:24:25,62.798729,179.358783,875.070312,97.775
1220, 11:24:25,62.849905,179.745265,875.644886,97.775
1221, 11:24:25,62.944089,180.217685,877.050426,97.775
1222, 11:24:25,63.05595,180.8009,879.169034,97.775
1223, 11:24:25,63.185369,181.545218,881.90483,97.775
1224, 11:24:25,63.273122,181.934422,882.913352,97.775
1225, 11:24:25,62.886048,180.819129,876.576705,97.775
1226, 11:24:25,62.140586,177.690696,865.669744,97.775
1227, 11:24:25,61.582899,174.738755,858.230824,97.775
1228, 11:24:25,61.401397,173.101918,855.276278,97.775
1229, 11:24:25,61.355508,172.327415,854.660511,97.775
1230, 11:24:26,61.383641,172.20348,854.703835,97.775
1231, 11:24:26,61.429214,172.149384,855.072443,97.775
1232, 11:24:26,61.470723,172.371922,855.899148,97.775
1233, 11:24:26,61.608112,172.788826,858.443182,97.775
1234, 11:24:26,61.621094,172.950402,857.730824,97.775
1235, 11:24:26,61.638849,172.973366,857.914062,97.775
1236, 11:24:26,61.58428,172.809186,857.571023,97.775
1237, 11:24:26,61.590317,172.868963,857.767756,97.775
1238, 11:24:26,61.655264,173.12062,858.524858,97.775
1239, 11:24:26,61.757457,173.642164,859.512074,97.775
1240, 11:24:26,61.887192,174.2558,860.287642,97.775
1241, 11:24:26,62.001933,174.86044,862.93821,97.775
1242, 11:24:26,62.096591,175.364583,864.821023,97.775
1243, 11:24:26,62.193221,175.912997,866.50071,97.775
1244, 11:24:26,62.291706,176.466974,867.387074,97.775
1245, 11:24:26,62.333176,176.945076,868.980114,97.775
1246, 11:24:26,62.434422,177.384233,869.56392,97.775
1247, 11:24:26,62.542574,177.960109,871.348722,97.775
1248, 11:24:26,62.607599,178.351681,871.939631,97.775
1249, 11:24:26,62.724353,178.825521,874.160511,97.775
1250, 11:24:26,62.806029,179.445076,874.9375,97.775
1251, 11:24:26,62.888692,179.913707,876.990767,97.775
1252, 11:24:26,63.028409,180.502367,878.823864,97.775
1253, 11:24:26,63.097972,180.994673,880.331676,97.775
1254, 11:24:26,63.202928,181.707741,881.058949,97.775
1255, 11:24:26,63.364702,182.457741,884.487926,97.775
1256, 11:24:26,63.397333,182.778646,885.021307,97.775
1257, 11:24:26,62.938565,181.352628,878.644176,97.775
1258, 11:24:26,62.091067,177.683239,866.565341,97.775
1259, 11:24:26,61.422783,174.185014,856.982244,97.775
1260, 11:24:27,61.212003,172.056463,853.134233,97.8
1261, 11:24:27,61.139994,170.962121,851.698864,97.8
1262, 11:24:27,61.10101,170.532197,850.664773,97.8
1263, 11:24:27,61.071654,169.992898,849.568182,97.8
1264, 11:24:27,61.083965,169.837595,848.8125,97.8
1265, 11:24:27,61.14895,169.98473,850.283381,97.8
1266, 11:24:27,61.254774,170.321615,851.412642,97.8
1267, 11:24:27,61.266375,170.44401,852.164062,97.8
1268, 11:24:27,61.250473,170.46875,851.627841,97.8
1269, 11:24:27,61.262626,170.520833,851.903409,97.8
1270, 11:24:27,61.321062,170.754853,852.554688,97.8
1271, 11:24:27,61.424637,171.245502,854.637784,97.8
1272, 11:24:27,61.57994,171.883759,855.526989,97.8
1273, 11:24:27,61.705848,172.521425,858.671165,97.8
1274, 11:24:27,61.795415,173.166075,860.408381,97.8
1275, 11:24:27,61.903488,173.76018,861.65767,97.8
1276, 11:24:27,62.018782,174.423769,862.846591,97.8
1277, 11:24:27,62.082899,174.83724,864.023438,97.8
1278, 11:24:27,62.151042,175.301136,864.678977,97.8
1279, 11:24:27,62.270754,175.873816,866.765625,97.8
1280, 11:24:27,62.339568,176.413116,867.788352,97.8
1281, 11:24:27,62.442827,177.049124,868.825994,97.8
1282, 11:24:27,62.562066,177.681937,870.497869,97.8
1283, 11:24:27,62.666312,178.296757,872.706676,97.8
1284, 11:24:27,62.743016,178.735204,873.939631,97.8
1285, 11:24:27,62.856258,179.283736,875.168324,97.8
1286, 11:24:27,62.98035,179.942945,876.640625,97.8
1287, 11:24:27,63.103141,180.629025,879.544034,97.8
1288, 11:24:27,63.190104,181.117188,880.203125,97.8
1289, 11:24:27,62.905934,180.419034,876.730114,97.8
1290, 11:24:28,62.102075,177.158499,865.485085,97.8
1291, 11:24:28,61.420691,173.757339,856.632102,97.8
1292, 11:24:28,61.16351,171.442708,851.335227,97.8
1293, 11:24:28,61.089607,170.354522,849.899858,97.8
1294, 11:24:28,61.065696,169.863281,849.083097,97.8
1295, 11:24:28,61.049282,169.543679,848.347301,97.8
1296, 11:24:28,61.094223,169.519886,848.590909,97.8
1297, 11:24:28,61.156092,169.746212,850.34375,97.8
1298, 11:24:28,61.252367,170.143939,851.130682,97.8
1299, 11:24:28,61.280185,170.325402,852.114347,97.8
1300, 11:24:28,61.280855,170.380919,851.794034,97.8
1301, 11:24:28,61.296204,170.450166,852.232244,97.8
1302, 11:24:28,61.333531,170.678149,851.580256,97.8
1303, 11:24:28,61.459083,171.209162,854.263494,97.8
1304, 11:24:28,61.56688,171.796283,856.141335,97.8
1305, 11:24:28,61.70782,172.523556,859.002131,97.8
1306, 11:24:28,61.826271,173.195668,859.676847,97.8
1307, 11:24:28,61.949061,173.797467,861.492188,97.8
1308, 11:24:28,62.05378,174.424598,863.851562,97.8
1309, 11:24:28,62.14753,174.983783,864.698153,97.8
1310, 11:24:28,62.235204,175.457978,865.659801,97.8
1311, 11:24:28,62.302675,175.926018,866.848722,97.8
1312, 11:24:28,62.354522,176.405421,868.287642,97.8
1313, 11:24:28,62.475576,177.037524,870.21946,97.8
1314, 11:24:28,62.609414,177.743016,871.21946,97.8
1315, 11:24:28,62.692669,178.246567,873.104403,97.8
1316, 11:24:28,62.610835,178.232126,871.230824,97.8
1317, 11:24:28,62.041233,176.073035,863.824574,97.8
1318, 11:24:28,61.499053,173.044508,855.352273,97.8
1319, 11:24:28,61.187224,170.85902,850.78196,97.8
1320, 11:24:29,61.127486,169.820904,848.90554,98.05
1321, 11:24:29,61.13739,169.606297,849.177557,98.05
1322, 11:24:29,61.174124,169.54652,848.889915,98.05
1323, 11:24:29,61.20636,169.588778,849.640625,98.05
1324, 11:24:29,61.339134,170.011245,851.65554,98.05
1325, 11:24:29,61.440933,170.45348,853.414062,98.05
1326, 11:24:29,61.463463,170.653172,852.867898,98.05
1327, 11:24:29,61.463226,170.726799,853.244318,98.05
1328, 11:24:29,61.471749,170.813447,853.125,98.05
1329, 11:24:29,61.574219,171.155421,854.475142,98.05
1330, 11:24:29,61.674992,171.709635,856.041903,98.05
1331, 11:24:29,61.785156,172.343158,858.28054,98.05
1332, 11:24:29,61.911379,172.969934,859.339489,98.05
1333, 11:24:29,61.969815,173.730469,860.692472,98.05
1334, 11:24:29,62.10247,174.283262,862.784801,98.05
1335, 11:24:29,62.201231,174.930398,865.116477,98.05
1336, 11:24:29,62.271899,175.468632,865.399858,98.05
1337, 11:24:29,62.400292,176.01669,866.926847,98.05
1338, 11:24:29,62.482008,176.594223,867.849432,98.05
1339, 11:24:29,62.565104,177.15554,869.697443,98.05
1340, 11:24:29,62.637942,177.746686,870.889205,98.05
1341, 11:24:29,62.773556,178.379853,872.852983,98.05
1342, 11:24:29,62.882773,178.967921,874.097301,98.05
1343, 11:24:29,62.97822,179.622159,876.321023,98.05
1344, 11:24:29,63.081005,180.187145,877.398438,98.05
1345, 11:24:29,63.196536,180.735914,878.756392,98.05
1346, 11:24:29,63.22238,181.204072,879.923295,98.05
1347, 11:24:29,63.340199,181.808949,882.134943,98.05
1348, 11:24:29,63.467014,182.557765,884.3125,98.05
1349, 11:24:29,63.542929,183.065341,885.275568,98.05
1350, 11:24:30,63.208807,182.044508,880.673295,98.05
1351, 11:24:30,62.49057,179.092921,870.833097,98.05
1352, 11:24:30,62.039536,176.570312,863.37358,98.05
1353, 11:24:30,61.941485,175.281368,860.699574,98.05
1354, 11:24:30,61.987334,174.969105,860.198153,98.05
1355, 11:24:30,62.032828,174.946023,862.463068,98.05
1356, 11:24:30,62.060803,175.02474,861.512074,98.05
1357, 11:24:30,62.126894,175.236742,862.752841,98.05
1358, 11:24:30,62.223603,175.650923,863.871449,98.05
1359, 11:24:30,62.228575,175.742069,864.287642,98.05
1360, 11:24:30,62.212476,175.741122,863.637074,98.05
1361, 11:24:30,62.192472,175.582623,864.009943,98.05
1362, 11:24:30,62.199929,175.682173,863.65554,98.05
1363, 11:24:30,62.256274,175.894768,864.777699,98.05
1364, 11:24:30,62.336608,176.399976,865.692472,98.05
1365, 11:24:30,62.455019,176.931818,867.951705,98.05
1366, 11:24:30,62.537405,177.380682,867.647727,98.05
1367, 11:24:30,62.612374,177.900095,869.926136,98.05
1368, 11:24:30,62.703875,178.366832,870.828835,98.05
1369, 11:24:30,62.734296,178.732718,872.487216,98.05
1370, 11:24:30,62.764639,179.082741,873.010653,98.05
1371, 11:24:30,62.839094,179.493608,874.024148,98.05
1372, 11:24:30,62.903922,179.90116,875.185369,98.05
1373, 11:24:30,63.035551,180.474077,877.847301,98.05
1374, 11:24:30,63.096433,181.063447,878.454545,98.05
1375, 11:24:30,63.121765,181.287642,878.683239,98.05
1376, 11:24:30,62.733744,179.849432,872.383523,98.05
1377, 11:24:30,62.211608,177.497988,864.661222,98.05
1378, 11:24:30,61.92736,175.752723,860.965199,98.05
1379, 11:24:30,61.927636,175.023438,860.31108,98.05
1380, 11:24:31,61.929569,174.882931,860.056108,98.05
1381, 11:24:31,61.948785,174.907907,861.024148,98.05
1382, 11:24:31,62.000118,174.993253,860.371449,98.05
1383, 11:24:31,62.092724,175.258759,863.257102,98.05
1384, 11:24:31,62.163273,175.579309,862.893466,98.05
1385, 11:24:31,62.130642,175.688329,863.803267,98.05
1386, 11:24:31,62.112216,175.676136,862.909091,98.05
1387, 11:24:31,62.123777,175.658736,863.111506,98.05
1388, 11:24:31,62.158894,175.855469,863.087358,98.05
1389, 11:24:31,62.21441,176.176847,864.495739,98.05
1390, 11:24:31,62.266611,176.651634,865.955256,98.05
1391, 11:24:31,62.384549,177.150331,867.109375,98.05
1392, 11:24:31,62.46946,177.635653,868.151989,98.05
1393, 11:24:31,62.526949,178.118726,869.763494,98.05
1394, 11:24:31,62.589331,178.538352,871.116477,98.05
1395, 11:24:31,62.611545,178.916075,871.791903,98.05
1396, 11:24:31,62.665996,179.191643,871.752131,98.05
1397, 11:24:31,62.748895,179.670455,873.301136,98.05
1398, 11:24:31,62.813644,180.074455,873.898438,98.05
1399, 11:24:31,62.87792,180.586884,876.43892,98.05
1400, 11:24:31,62.982757,181.082268,877.465199,98.05
1401, 11:24:31,63.062145,181.648082,878.752131,98.05
1402, 11:24:31,63.157513,182.170928,880.147727,98.05
1403, 11:24:31,63.181384,182.703717,881.557528,98.05
1404, 11:24:31,63.275647,183.314157,883.18608,98.05
1405, 11:24:31,63.352233,183.750355,885.022017,98.05
1406, 11:24:31,63.427636,184.293324,886.086648,98.05
1407, 11:24:31,63.507576,184.716383,887.943182,98.05
1408, 11:24:31,63.581558,185.203007,888.65554,98.05
1409, 11:24:31,63.671244,185.722538,890.505682,98.05
1410, 11:24:32,63.35756,184.822206,886.06108,98.05
1411, 11:24:32,62.707939,182.037169,875.862216,98.05
1412, 11:24:32,62.246725,179.246804,868.083097,98.05
1413, 11:24:32,62.114741,177.798769,865.411932,98.05
1414, 11:24:32,62.115807,177.298177,864.431108,98.05
1415, 11:24:32,62.131984,177.128906,864.847301,98.05
1416, 11:24:32,62.129893,176.942235,864.400568,98.05
1417, 11:24:32,62.10898,176.715199,864.56108,98.05
1418, 11:24:32,62.159643,176.812263,864.990057,98.05
1419, 11:24:32,62.202375,176.968868,865.617188,98.05
1420, 11:24:32,62.205058,176.965554,865.105824,98.05
1421, 11:24:32,62.189828,176.849787,865.746449,98.05
1422, 11:24:32,62.150253,176.63447,864.113636,98.05
1423, 11:24:32,62.181068,176.803149,865.395597,98.05
1424, 11:24:32,62.224471,177.021425,865.537642,98.05
1425, 11:24:32,62.335188,177.481889,867.522017,98.05
1426, 11:24:32,62.386245,177.906368,868.293324,98.05
1427, 11:24:32,62.448153,178.28196,869.893466,98.05
1428, 11:24:32,62.501776,178.611861,870.057528,98.05
1429, 11:24:32,62.551768,178.804451,871.295455,98.05
1430, 11:24:32,62.60827,179.16714,871.951705,98.05
1431, 11:24:32,62.653291,179.534209,873.290483,98.05
1432, 11:24:32,62.719776,179.889441,873.745739,98.05
1433, 11:24:32,62.805713,180.291667,875.264205,98.05
1434, 11:24:32,62.865491,180.72242,876.010653,98.05
1435, 11:24:32,62.937934,181.219105,878.237926,98.05
1436, 11:24:32,62.987295,181.683002,878.56108,98.05
1437, 11:24:32,63.070076,182.151989,880.298295,98.05
1438, 11:24:32,63.102431,182.546402,880.335227,98.05
1439, 11:24:32,63.149621,182.985322,881.974432,98.05
1440, 11:24:33,63.237492,183.452533,883.777699,97.8
1441, 11:24:33,63.349077,184.001776,885.979403,97.8
1442, 11:24:33,63.402975,184.356179,886.668324,97.8
1443, 11:24:33,63.105666,183.411695,882.34517,97.8
1444, 11:24:33,62.515112,180.746094,872.78054,97.8
1445, 11:24:33,62.154672,178.243845,866.267045,97.8
1446, 11:24:33,62.03342,177.017401,863.519176,97.8
1447, 11:24:33,62.015033,176.578717,863.225142,97.8
1448, 11:24:33,62.050387,176.480705,863.114347,97.8
1449, 11:24:33,62.088029,176.240412,863.769176,97.8
1450, 11:24:33,62.078125,176.210701,863.0625,97.8
1451, 11:24:33,62.118766,176.352983,864.90767,97.8
1452, 11:24:33,62.155698,176.476089,865.296875,97.8
1453, 11:24:33,62.133286,176.508759,864.328125,97.8
1454, 11:24:33,62.120541,176.391454,863.933949,97.8
1455, 11:24:33,62.122199,176.398793,865.108665,97.8
1456, 11:24:33,62.15913,176.505327,865.284801,97.8
1457, 11:24:33,62.227746,176.84517,866.116477,97.8
1458, 11:24:33,62.323864,177.233428,867.181818,97.8
1459, 11:24:33,62.423414,177.726681,868.87429,97.8
1460, 11:24:33,62.522254,178.135417,870.505682,97.8
1461, 11:24:33,62.579269,178.557884,871.708097,97.8
1462, 11:24:33,62.6381,178.805398,872.107955,97.8
1463, 11:24:33,62.680122,179.249171,873.404119,97.8
1464, 11:24:33,62.771465,179.526989,873.823864,97.8
1465, 11:24:33,62.837161,179.988281,875.759233,97.8
1466, 11:24:33,62.894807,180.401752,876.461648,97.8
1467, 11:24:33,62.971039,180.803267,878.302557,97.8
1468, 11:24:33,63.087476,181.421046,879.429688,97.8
1469, 11:24:33,63.130248,181.881747,880.918324,97.8
1470, 11:24:34,63.072246,181.788234,880.141335,97.8
1471, 11:24:34,62.627446,179.837358,873.59517,97.8
1472, 11:24:34,62.151515,177.517045,866.019886,97.8
1473, 11:24:34,61.973603,176.082741,864.274858,97.8
1474, 11:24:34,61.970999,175.621804,863.321733,97.8
1475, 11:24:34,62.023635,175.552438,864.183949,97.8
1476, 11:24:34,62.088463,175.582623,864.129261,97.8
1477, 11:24:34,62.153922,175.781842,865.460938,97.8
1478, 11:24:34,62.222617,176.158854,865.913352,97.8
1479, 11:24:34,62.251499,176.397017,866.870739,97.8
1480, 11:24:34,62.257812,176.407434,866.370739,97.8
1481, 11:24:34,62.236387,176.311435,866.601562,97.8
1482, 11:24:34,62.251697,176.324692,866.087358,97.8
1483, 11:24:34,62.296993,176.522609,867.056108,97.8
1484, 11:24:34,62.384115,176.918442,868.21804,97.8
1485, 11:24:34,62.49491,177.38151,869.942472,97.8
1486, 11:24:34,62.606889,177.814986,871.443892,97.8
1487, 11:24:34,62.686987,178.35973,872.564631,97.8
1488, 11:24:34,62.738991,178.87133,873.262074,97.8
1489, 11:24:34,62.827888,179.205729,874.566761,97.8
1490, 11:24:34,62.901791,179.664181,876.277699,97.8
1491, 11:24:34,62.963699,179.969223,876.556818,97.8
1492, 11:24:34,63.01527,180.407079,877.897017,97.8
1493, 11:24:34,63.118963,180.854048,879.504972,97.8
1494, 11:24:34,63.224077,181.31901,880.982244,97.8
1495, 11:24:34,63.292929,181.819602,882.198864,97.8
1496, 11:24:34,63.413234,182.36849,883.827415,97.8
1497, 11:24:34,63.450166,182.841027,885.432528,97.8
1498, 11:24:34,63.534998,183.379616,886.067472,97.8
1499, 11:24:34,63.62425,183.907789,888.395597,97.8
1500, 11:24:35,63.708452,184.434541,889.825994,97.8
1501, 11:24:35,63.792416,185.004616,891.433949,97.8
1502, 11:24:35,63.77328,185.098722,891.18608,97.8
1503, 11:24:35,63.284604,183.363281,884.472301,97.8
1504, 11:24:35,62.768111,180.439749,874.888494,97.8
1505, 11:24:35,62.463778,178.299006,869.791193,97.8
1506, 11:24:35,62.38735,177.446615,868.642756,97.8
1507, 11:24:35,62.448864,177.296875,869.818182,97.8
1508, 11:24:35,62.476997,177.248224,869.847301,97.8
1509, 11:24:35,62.516967,177.354877,870.535511,97.8
1510, 11:24:35,62.614623,177.590554,871.523438,97.8
1511, 11:24:35,62.671638,177.864347,872.990057,97.8
1512, 11:24:35,62.667259,177.82848,872.456676,97.8
1513, 11:24:35,62.629025,177.673532,871.697443,97.8
1514, 11:24:35,62.630524,177.533617,871.034091,97.8
1515, 11:24:35,62.624605,177.529119,871.47017,97.8
1516, 11:24:35,62.681029,177.775095,872.181818,97.8
1517, 11:24:35,62.799242,178.24858,874.045455,97.8
1518, 11:24:35,62.898477,178.732363,875.74929,97.8
1519, 11:24:35,62.966935,179.205729,876.302557,97.8
1520, 11:24:35,63.068537,179.584872,877.199574,97.8
1521, 11:24:35,63.138573,180.083807,878.732955,97.8
1522, 11:24:35,63.211884,180.415483,880.316761,97.8
1523, 11:24:35,63.280461,180.695549,881.090909,97.8
1524, 11:24:35,63.345802,181.158617,881.295455,97.8
1525, 11:24:35,63.459399,181.610677,883.740767,97.8
1526, 11:24:35,63.530066,181.976089,884.524148,97.8
1527, 11:24:35,63.469026,181.93312,884.43679,97.8
1528, 11:24:35,63.031132,180.082505,877.81321,97.8
1529, 11:24:35,62.580098,177.691998,871.453125,97.8
1530, 11:24:36,62.401042,176.037879,867.315341,97.8
1531, 11:24:36,62.361979,175.366241,867.024148,97.8
1532, 11:24:36,62.411656,175.149266,866.546165,97.8
1533, 11:24:36,62.426176,175.060724,867.921165,97.8
1534, 11:24:36,62.443379,175.145478,867.747869,97.8
1535, 11:24:36,62.574377,175.637902,869.747869,97.8
1536, 11:24:36,62.612334,175.867779,869.644176,97.8
1537, 11:24:36,62.633089,175.913944,869.801847,97.8
1538, 11:24:36,62.627999,175.839489,869.6875,97.8
1539, 11:24:36,62.632063,175.829901,870.166903,97.8
1540, 11:24:36,62.674953,176.026752,870.464489,97.8
1541, 11:24:36,62.820431,176.561671,871.833097,97.8
1542, 11:24:36,62.913944,177.148082,873.985085,97.8
1543, 11:24:36,63.021465,177.68608,874.917614,97.8
1544, 11:24:36,63.111072,178.146662,876.877131,97.8
1545, 11:24:36,63.213108,178.637902,878.242188,97.8
1546, 11:24:36,63.314039,179.166548,879.84304,97.8
1547, 11:24:36,63.372869,179.584991,880.634943,97.8
1548, 11:24:36,63.47017,180.122159,882.485795,97.8
1549, 11:24:36,63.538352,180.569602,883.602273,97.8
1550, 11:24:36,63.585859,181.009943,884.144886,97.8
1551, 11:24:36,63.68166,181.500473,886.017045,97.8
1552, 11:24:36,63.775687,181.980942,887.169744,97.8
1553, 11:24:36,63.889639,182.522609,889.243608,97.8
1554, 11:24:36,63.977904,182.998106,890.133523,97.8
1555, 11:24:36,64.114544,183.52545,892.908381,97.8
1556, 11:24:36,64.212871,184.049598,893.948153,97.8
1557, 11:24:36,64.289891,184.448745,895.558949,97.8
1558, 11:24:36,63.910945,182.940696,889.806108,97.8
1559, 11:24:36,63.203835,179.772491,879.697443,97.8
1560, 11:24:37,62.857797,177.006155,872.008523,97.825
1561, 11:24:37,62.716067,175.427557,871.335227,97.825
1562, 11:24:37,62.669152,174.590317,870.223722,97.825
1563, 11:24:37,62.665838,174.181226,868.879972,97.825
1564, 11:24:37,62.588502,173.618726,867.206676,97.825
1565, 11:24:37,62.592369,173.442353,868.148438,97.825
1566, 11:24:37,62.644492,173.586884,868.598011,97.825
1567, 11:24:37,62.746528,173.928977,869.889205,97.825
1568, 11:24:37,62.773319,174.002723,869.283381,97.825
1569, 11:24:37,62.788589,173.961411,869.87358,97.825
1570, 11:24:37,62.802241,174.046875,869.991477,97.825
1571, 11:24:37,62.873264,174.228693,871.1875,97.825
1572, 11:24:37,62.979246,174.72893,872.600852,97.825
1573, 11:24:37,63.07051,175.205374,873.695312,97.825
1574, 11:24:37,63.197759,175.810606,875.971591,97.825
1575, 11:24:37,63.278133,176.346236,876.84446,97.825
1576, 11:24:37,63.371528,176.838542,877.389205,97.825
1577, 11:24:37,63.47242,177.367543,879.389915,97.825
1578, 11:24:37,63.54143,177.762074,879.450284,97.825
1579, 11:24:37,63.645202,178.276515,881.579545,97.825
1580, 11:24:37,63.714883,178.757339,882.146307,97.825
1581, 11:24:37,63.803741,179.227036,883.78267,97.825
1582, 11:24:37,63.908499,179.828717,885.665483,97.825
1583, 11:24:37,64.02182,180.350497,887.693892,97.825
1584, 11:24:37,64.116398,180.864347,888.680398,97.825
1585, 11:24:37,64.203954,181.489702,890.475142,97.825
1586, 11:24:37,64.307449,181.968277,891.75,97.825
1587, 11:24:37,64.419231,182.564039,893.929688,97.825
1588, 11:24:37,64.522648,183.041903,895.524148,97.825
1589, 11:24:37,64.600852,183.607955,896.661932,97.825
1590, 11:24:38,64.688092,184.112571,898.03054,97.8
1591, 11:24:38,64.800781,184.746567,899.556108,97.8
1592, 11:24:38,64.848722,185.032907,900.359375,97.8
1593, 11:24:38,64.460977,183.583215,895.590199,97.8
1594, 11:24:38,63.921086,180.477746,886.519886,97.8
1595, 11:24:38,63.53563,177.618253,878.814631,97.8
1596, 11:24:38,63.379972,176.117661,876.49858,97.8
1597, 11:24:38,63.333728,175.523438,876.21733,97.8
1598, 11:24:38,63.300623,175.10973,875.382812,97.8
1599, 11:24:38,63.236782,174.719815,874.65696,97.8
1600, 11:24:38,63.241793,174.697917,874.539773,97.8
1601, 11:24:38,63.336845,174.852865,875.335938,97.8
1602, 11:24:38,63.381826,175.057884,876.418324,97.8
1603, 11:24:38,63.407868,175.143584,877.057528,97.8
1604, 11:24:38,63.413747,175.173059,876.572443,97.8
1605, 11:24:38,63.441446,175.236742,877.159091,97.8
1606, 11:24:38,63.507773,175.570668,877.65696,97.8
1607, 11:24:38,63.625395,176.027225,880.038352,97.8
1608, 11:24:38,63.747356,176.645952,881.120028,97.8
1609, 11:24:38,63.840751,177.132102,882.778409,97.8
1610, 11:24:38,63.947562,177.715791,882.973722,97.8
1611, 11:24:38,64.036064,178.157907,884.958807,97.8
1612, 11:24:38,64.083333,178.726326,884.883523,97.8
1613, 11:24:38,64.211253,179.180161,887.245739,97.8
1614, 11:24:38,64.26456,179.644058,888.191051,97.8
1615, 11:24:38,64.354127,180.220999,890.652699,97.8
1616, 11:24:38,64.44985,180.714607,891.120028,97.8
1617, 11:24:38,64.522648,181.230824,892.333807,97.8
1618, 11:24:38,64.626578,181.86553,893.985795,97.8
1619, 11:24:38,64.693142,182.422704,895.703835,97.8
1620, 11:24:39,64.823627,182.96946,897.265625,97.8
1621, 11:24:39,64.877091,183.438092,898.756392,97.8
1622, 11:24:39,64.976286,184.070431,899.479403,97.8
1623, 11:24:39,65.083491,184.687973,902.46875,97.8
1624, 11:24:39,65.156211,185.181226,903.095881,97.8
1625, 11:24:39,65.197246,185.553385,904.411222,97.8
1626, 11:24:39,64.908775,184.383523,899.494318,97.8
1627, 11:24:39,64.377683,181.593277,890.752841,97.8
1628, 11:24:39,64.01527,179.016454,884.013494,97.8
1629, 11:24:39,63.898635,177.763613,882.675426,97.8
1630, 11:24:39,63.873422,177.399148,881.536932,97.8
1631, 11:24:39,63.878512,177.339607,882.122869,97.8
1632, 11:24:39,63.860559,177.124763,880.921875,97.8
1633, 11:24:39,63.906842,177.271662,882.524858,97.8
1634, 11:24:39,63.966856,177.512311,882.684659,97.8
1635, 11:24:39,64.037682,177.767401,884.192472,97.8
1636, 11:24:39,64.043876,177.84517,883.676136,97.8
1637, 11:24:39,64.04581,177.893584,884.716619,97.8
1638, 11:24:39,64.062618,178.0567,884.033381,97.8
1639, 11:24:39,64.156605,178.404474,885.361506,97.8
1640, 11:24:39,64.276397,178.999645,886.986506,97.8
1641, 11:24:39,64.365491,179.453954,888.570312,97.8
1642, 11:24:39,64.470486,180.149148,890.792614,97.8
1643, 11:24:39,64.498382,180.678385,890.567472,97.8
1644, 11:24:39,64.631155,181.308239,892.980114,97.8
1645, 11:24:39,64.711253,181.731771,894.06392,97.8
1646, 11:24:39,64.763573,182.199337,894.528409,97.8
1647, 11:24:39,64.857126,182.707741,896.158381,97.8
1648, 11:24:39,64.899582,183.085582,897.34304,97.8
1649, 11:24:39,64.988439,183.631984,898.769176,97.8
1650, 11:24:40,65.035985,184.160511,899.741477,97.775
1651, 11:24:40,65.16639,184.755327,902.304688,97.775
1652, 11:24:40,65.244949,185.303504,902.767045,97.775
1653, 11:24:40,65.163076,185.143111,902.412642,97.775
1654, 11:24:40,64.706163,183.179569,895.475142,97.775
1655, 11:24:40,64.296402,180.735322,888.048295,97.775
1656, 11:24:40,64.106574,179.207978,884.540483,97.775
1657, 11:24:40,64.114544,178.736624,884.522017,97.775
1658, 11:24:40,64.125237,178.76018,884.651989,97.775
1659, 11:24:40,64.171836,178.818063,885.570312,97.775
1660, 11:24:40,64.211253,179.071259,885.43608,97.775
1661, 11:24:40,64.337595,179.639678,887.997159,97.775
1662, 11:24:40,64.37066,179.928267,888.18892,97.775
1663, 11:24:40,64.376657,179.990767,888.225852,97.775
1664, 11:24:40,64.366241,180.071733,888.390625,97.775
1665, 11:24:40,64.402225,180.173532,888.458807,97.775
1666, 11:24:40,64.471394,180.54723,889.862926,97.775
1667, 11:24:40,64.557173,181.096709,890.932528,97.775
1668, 11:24:40,64.648595,181.696259,892.262784,97.775
1669, 11:24:40,64.74712,182.368253,894.450994,97.775
1670, 11:24:40,64.845723,182.993608,896.18608,97.775
1671, 11:24:40,64.929253,183.561435,897.669744,97.775
1672, 11:24:40,64.967132,184.02545,898.757812,97.775
1673, 11:24:40,65.032394,184.54794,900.091619,97.775
1674, 11:24:40,65.05161,185.004735,899.642045,97.775
1675, 11:24:40,65.14974,185.528764,901.823153,97.775
1676, 11:24:40,65.200205,185.875237,902.950284,97.775
1677, 11:24:40,65.301728,186.47242,905.331676,97.775
1678, 11:24:40,65.387192,186.997751,906.477983,97.775
1679, 11:24:40,65.462161,187.469815,907.983665,97.775
1680, 11:24:41,65.54794,188.087476,909.027699,97.55
1681, 11:24:41,65.618213,188.578598,910.667614,97.55
1682, 11:24:41,65.706242,189.22242,911.547585,97.55
1683, 11:24:41,65.752446,189.736032,913.742898,97.55
1684, 11:24:41,65.692629,189.732244,912.115057,97.55
1685, 11:24:41,65.176334,187.722656,904.611506,97.55
1686, 11:24:41,64.602391,184.810961,895.803267,97.55
1687, 11:24:41,64.266533,182.743726,890.627131,97.55
1688, 11:24:41,64.171125,181.795099,887.762074,97.55
1689, 11:24:41,64.223682,181.530895,887.96946,97.55
1690, 11:24:41,64.229759,181.421283,887.789062,97.55
1691, 11:24:41,64.235559,181.473722,888.225852,97.55
1692, 11:24:41,64.27328,181.638021,888.56108,97.55
1693, 11:24:41,64.321062,181.891217,889.745028,97.55
1694, 11:24:41,64.310843,181.943419,889.50142,97.55
1695, 11:24:41,64.282828,181.824337,889.582386,97.55
1696, 11:24:41,64.264323,181.748461,888.618608,97.55
1697, 11:24:41,64.296402,181.809186,889.309659,97.55
1698, 11:24:41,64.369515,182.1933,891.12571,97.55
1699, 11:24:41,64.407513,182.622633,891.673295,97.55
1700, 11:24:41,64.494081,183.098248,892.941761,97.55
1701, 11:24:41,64.56396,183.555043,894.105824,97.55
1702, 11:24:41,64.603022,183.965791,894.482244,97.55
1703, 11:24:41,64.658775,184.383996,895.764205,97.55
1704, 11:24:41,64.683949,184.64607,896.46733,97.55
1705, 11:24:41,64.733152,185.071141,896.611506,97.55
1706, 11:24:41,64.829467,185.522491,898.663352,97.55
1707, 11:24:41,64.895123,185.852509,900.512784,97.55
1708, 11:24:41,64.944247,186.305279,900.746449,97.55
1709, 11:24:41,64.818932,185.856889,899.445312,97.55
1710, 11:24:42,64.241556,183.495502,891.007102,97.525
1711, 11:24:42,63.727431,180.78267,882.241477,97.525
1712, 11:24:42,63.478259,178.98544,877.693892,97.525
1713, 11:24:42,63.446575,178.264441,876.419034,97.525
1714, 11:24:42,63.433199,177.996567,876.152699,97.525
1715, 11:24:42,63.44259,177.765743,876.023438,97.525
1716, 11:24:42,63.470092,177.763494,876.728693,97.525
1717, 11:24:42,63.528646,177.974669,877.850852,97.525
1718, 11:24:42,63.577257,178.243134,878.058239,97.525
1719, 11:24:42,63.58432,178.319721,878.014915,97.525
1720, 11:24:42,63.57485,178.276634,878.210938,97.525
1721, 11:24:42,63.57264,178.309304,878.034801,97.525
1722, 11:24:42,63.620068,178.574692,878.388494,97.525
1723, 11:24:42,63.725458,178.973248,880.294034,97.525
1724, 11:24:42,63.829743,179.562145,881.549006,97.525
1725, 11:24:42,63.899897,180.085582,883.575994,97.525
1726, 11:24:42,63.966343,180.629143,884.612926,97.525
1727, 11:24:42,64.024621,181.084754,885.838068,97.525
1728, 11:24:42,64.08432,181.554569,885.818892,97.525
1729, 11:24:42,64.164891,182.013139,887.806108,97.525
1730, 11:24:42,64.225537,182.351799,889.011364,97.525
1731, 11:24:42,64.28488,182.836648,890.971591,97.525
1732, 11:24:42,64.385456,183.33724,891.963778,97.525
1733, 11:24:42,64.419152,183.708215,892.644176,97.525
1734, 11:24:42,64.492661,184.255919,894.009943,97.525
1735, 11:24:42,64.565183,184.649621,895.821023,97.525
1736, 11:24:42,64.628748,185.191643,896.013494,97.525
1737, 11:24:42,64.711135,185.631037,898.385653,97.525
1738, 11:24:42,64.813802,186.146899,899.384233,97.525
1739, 11:24:42,64.880919,186.546638,900.950284,97.525
1740, 11:24:43,64.456992,184.903172,894.151989,97.55
1741, 11:24:43,63.730745,181.700758,884.028409,97.55
1742, 11:24:43,63.242858,178.644768,875.303267,97.55
1743, 11:24:43,63.050347,176.989583,871.693182,97.55
1744, 11:24:43,62.955335,176.105114,869.116477,97.55
1745, 11:24:43,62.957347,175.65992,869.306108,97.55
1746, 11:24:43,62.882655,175.225616,868.129261,97.55
1747, 11:24:43,62.938644,175.154001,869.432528,97.55
1748, 11:24:43,62.990885,175.406368,869.543324,97.55
1749, 11:24:43,63.030619,175.586174,870.616477,97.55
1750, 11:24:43,63.040365,175.698745,870.431108,97.55
1751, 11:24:43,63.032158,175.720052,870.715199,97.55
1752, 11:24:43,63.032947,175.737571,870.59304,97.55
1753, 11:24:43,63.054017,175.959872,871.091619,97.55
1754, 11:24:43,63.165167,176.483191,871.788352,97.55
1755, 11:24:43,63.264481,177.029238,873.868608,97.55
1756, 11:24:43,63.359651,177.496567,874.644176,97.55
1757, 11:24:43,63.445194,178.03492,876.212358,97.55
1758, 11:24:43,63.490096,178.561671,876.867188,97.55
1759, 11:24:43,63.56396,178.959872,878.026278,97.55
1760, 11:24:43,63.599116,179.367424,878.681818,97.55
1761, 11:24:43,63.670652,179.830611,880.162642,97.55
1762, 11:24:43,63.765783,180.361742,882.40625,97.55
1763, 11:24:43,63.835464,180.797112,883.694602,97.55
1764, 11:24:43,63.91497,181.325876,884.142756,97.55
1765, 11:24:43,63.99053,181.827652,886.633523,97.55
1766, 11:24:43,64.04506,182.342093,887.583807,97.55
1767, 11:24:43,64.036301,182.837121,888.352273,97.55
1768, 11:24:43,64.14023,183.258759,889.259943,97.55
1769, 11:24:43,64.264007,183.754616,891.229403,97.55
1770, 11:24:44,64.379814,184.283854,892.21733,97.525
1771, 11:24:44,64.46804,184.841619,894.740057,97.525
1772, 11:24:44,64.329822,184.46295,892.200994,97.525
1773, 11:24:44,63.645439,181.97893,883.078125,97.525
1774, 11:24:44,63.043758,178.626539,873.091619,97.525
1775, 11:24:44,62.728851,176.21733,867.772727,97.525
1776, 11:24:44,62.626499,175.109612,865.916193,97.525
1777, 11:24:44,62.629025,174.638968,865.18892,97.525
1778, 11:24:44,62.60614,174.399384,865.410511,97.525
1779, 11:24:44,62.559225,174.19188,864.799006,97.525
1780, 11:24:44,62.599037,174.264441,864.984375,97.525
1781, 11:24:44,62.682726,174.531132,865.487926,97.525
1782, 11:24:44,62.668245,174.65625,866.065341,97.525
1783, 11:24:44,62.679885,174.618726,865.209517,97.525
1784, 11:24:44,62.685685,174.593987,865.348011,97.525
1785, 11:24:44,62.712792,174.696615,866.654119,97.525
1786, 11:24:44,62.801018,175.168205,867.307528,97.525
1787, 11:24:44,62.897688,175.745147,870.360085,97.525
1788, 11:24:44,63.003157,176.267045,870.119318,97.525
1789, 11:24:44,63.070825,176.844105,871.786222,97.525
1790, 11:24:44,63.156092,177.372159,872.616477,97.525
1791, 11:24:44,63.218868,177.838897,873.834517,97.525
1792, 11:24:44,63.313052,178.345881,875.572443,97.525
1793, 11:24:44,63.373343,178.786222,876.600852,97.525
1794, 11:24:44,63.423651,179.18241,876.824574,97.525
1795, 11:24:44,63.516256,179.713542,879.045455,97.525
1796, 11:24:44,63.565144,180.104522,879.348722,97.525
1797, 11:24:44,63.668403,180.693655,881.403409,97.525
1798, 11:24:44,63.692195,181.267874,882.206676,97.525
1799, 11:24:44,63.823074,181.758996,884.673295,97.525
1800, 11:24:45,63.889796,182.223366,885.607244,97.3
1801, 11:24:45,63.986703,182.742306,887.664062,97.3
1802, 11:24:45,64.036222,183.156013,888.555398,97.3
1803, 11:24:45,64.154159,183.818537,890.695312,97.3
1804, 11:24:45,63.942274,183.168679,886.733665,97.3
1805, 11:24:45,63.246094,180.283262,877.446733,97.3
1806, 11:24:45,62.644452,177.193774,867.904119,97.3
1807, 11:24:45,62.459399,175.124408,863.808949,97.3
1808, 11:24:45,62.41714,174.315341,862.332386,97.3
1809, 11:24:45,62.434738,173.96804,863.129261,97.3
1810, 11:24:45,62.393742,173.691643,861.604403,97.3
1811, 11:24:45,62.393348,173.591501,862.37571,97.3
1812, 11:24:45,62.494713,173.879025,863.191761,97.3
1813, 11:24:45,62.540009,174.160748,863.830966,97.3
1814, 11:24:45,62.537247,174.246212,863.991477,97.3
1815, 11:24:45,62.514599,174.136127,863.921875,97.3
1816, 11:24:45,62.513968,174.15554,863.40767,97.3
1817, 11:24:45,62.545455,174.379735,864.696023,97.3
1818, 11:24:45,62.668087,174.8125,865.085227,97.3
1819, 11:24:45,62.745699,175.337476,867.74929,97.3
1820, 11:24:45,62.848485,175.901989,868.360795,97.3
1821, 11:24:45,62.951192,176.52545,870.164062,97.3
1822, 11:24:45,63.011127,177.050426,870.745739,97.3
1823, 11:24:45,63.110125,177.561908,872.232244,97.3
1824, 11:24:45,63.155185,177.968395,873.12571,97.3
1825, 11:24:45,63.237137,178.513021,874.953125,97.3
1826, 11:24:45,63.29727,178.91785,875.924716,97.3
1827, 11:24:45,63.390704,179.442945,877.34517,97.3
1828, 11:24:45,63.470723,179.997869,879.041193,97.3
1829, 11:24:45,63.509036,180.518584,879.71946,97.3
1830, 11:24:46,63.63956,181.067827,881.68821,97.3
1831, 11:24:46,63.698982,181.553859,882.402699,97.3
1832, 11:24:46,63.797704,182.120857,884.648438,97.3
1833, 11:24:46,63.93825,182.744673,886.479403,97.3
1834, 11:24:46,64.047704,183.374171,888.068892,97.3
1835, 11:24:46,63.958886,183.261127,887.37642,97.3
1836, 11:24:46,63.335306,180.931108,877.65767,97.3
1837, 11:24:46,62.719223,177.810606,868.559659,97.3
1838, 11:24:46,62.403922,175.568774,862.668324,97.3
1839, 11:24:46,62.328796,174.557884,861.78196,97.3
1840, 11:24:46,62.365807,174.323745,862.149858,97.3
1841, 11:24:46,62.381234,174.272964,862.808239,97.3
1842, 11:24:46,62.40408,174.276634,862.418324,97.3
1843, 11:24:46,62.496133,174.62429,863.973011,97.3
1844, 11:24:46,62.558318,174.881866,864.149148,97.3
1845, 11:24:46,62.546086,174.951705,864.329545,97.3
1846, 11:24:46,62.519965,174.903646,864.538352,97.3
1847, 11:24:46,62.51018,174.94768,864.43608,97.3
1848, 11:24:46,62.550268,175.05232,865.65483,97.3
1849, 11:24:46,62.642874,175.490649,866.083097,97.3
1850, 11:24:46,62.74633,175.997041,866.647017,97.3
1851, 11:24:46,62.842566,176.660275,868.850852,97.3
1852, 11:24:46,62.915759,177.247277,870.335938,97.3
1853, 11:24:46,63.017243,177.806937,872.100142,97.3
1854, 11:24:46,63.083886,178.332623,873.015625,97.3
1855, 11:24:46,63.139717,178.776634,874.102983,97.3
1856, 11:24:46,63.191722,179.193063,875.235085,97.3
1857, 11:24:46,63.289931,179.627367,876.443182,97.3
1858, 11:24:46,63.377249,180.117069,877.68821,97.3
1859, 11:24:46,63.466619,180.685369,879.484375,97.3
1860, 11:24:47,63.512705,181.259706,879.71733,97.275
1861, 11:24:47,63.581479,181.642637,881.867188,97.275
1862, 11:24:47,63.301926,180.660038,877.394886,97.275
1863, 11:24:47,62.6875,177.977273,868.360795,97.275
1864, 11:24:47,62.257773,175.295099,861.25071,97.275
1865, 11:24:47,62.058712,173.725379,858.659091,97.275
1866, 11:24:47,62.102943,173.247751,858.122869,97.275
1867, 11:24:47,62.101247,173.193892,859.941761,97.275
1868, 11:24:47,62.12863,173.205966,859.105114,97.275
1869, 11:24:47,62.246883,173.558357,861.239347,97.275
1870, 11:24:47,62.313881,174.054806,861.87429,97.275
1871, 11:24:47,62.336135,174.15045,862.286222,97.275
1872, 11:24:47,62.298177,174.095289,861.554688,97.275
1873, 11:24:47,62.270754,173.99929,861.484375,97.275
1874, 11:24:47,62.295731,174.123461,861.132812,97.275
1875, 11:24:47,62.358033,174.434422,862.731534,97.275
1876, 11:24:47,62.48619,175.011127,864.637784,97.275
1877, 11:24:47,62.588108,175.52474,866.165483,97.275
1878, 11:24:47,62.696141,176.124882,865.860085,97.275
1879, 11:24:47,62.755051,176.659091,868.085227,97.275
1880, 11:24:47,62.846117,177.116951,869.627841,97.275
1881, 11:24:47,62.904593,177.611506,870.234375,97.275
1882, 11:24:47,62.948469,177.943892,871.041193,97.275
1883, 11:24:47,63.002525,178.357481,872.974432,97.275
1884, 11:24:47,63.079388,178.83286,874.056818,97.275
1885, 11:24:47,63.167298,179.322917,874.875,97.275
1886, 11:24:47,63.230903,179.848011,875.789773,97.275
1887, 11:24:47,63.32994,180.323153,877.84517,97.275
1888, 11:24:47,63.390664,180.853812,879.134233,97.275
1889, 11:24:47,63.095604,179.888139,875.022017,97.275
1890, 11:24:48,62.393032,176.885062,864.108665,97.275
1891, 11:24:48,61.887311,173.800663,856.539773,97.275
1892, 11:24:48,61.672191,172.02178,852.8125,97.275
1893, 11:24:48,61.639915,171.373816,852.401989,97.275
1894, 11:24:48,61.666588,171.087358,852.413352,97.275
1895, 11:24:48,61.639126,170.939631,852.421875,97.275
1896, 11:24:48,61.692945,170.953362,852.507102,97.275
1897, 11:24:48,61.776121,171.366241,854.566761,97.275
1898, 11:24:48,61.802241,171.46875,853.701705,97.275
1899, 11:24:48,61.771741,171.470052,854.229403,97.275
1900, 11:24:48,61.752723,171.433357,853.631392,97.275
1901, 11:24:48,61.780027,171.52616,854.202415,97.275
1902, 11:24:48,61.851247,171.796638,856.245739,97.275
1903, 11:24:48,61.96508,172.362098,857.209517,97.275
1904, 11:24:48,62.071693,172.867543,857.81321,97.275
1905, 11:24:48,62.148753,173.393229,859.708807,97.275
1906, 11:24:48,62.236387,173.910393,860.286222,97.275
1907, 11:24:48,62.318142,174.47384,861.618608,97.275
1908, 11:24:48,62.396425,174.910393,862.06179,97.275
1909, 11:24:48,62.451271,175.334399,864.370028,97.275
1910, 11:24:48,62.538194,175.860322,864.477273,97.275
1911, 11:24:48,62.564236,176.3125,866.607955,97.275
1912, 11:24:48,62.632339,176.830729,865.933239,97.275
1913, 11:24:48,62.722775,177.308949,868.629261,97.275
1914, 11:24:48,62.842487,177.889678,870.170455,97.275
1915, 11:24:48,62.918995,178.424124,871.169744,97.275
1916, 11:24:48,62.987532,178.950758,872.497159,97.275
1917, 11:24:48,63.092527,179.450876,874.176847,97.275
1918, 11:24:48,63.148595,179.961411,875.271307,97.275
1919, 11:24:48,63.222814,180.293916,876.590199,97.275
1920, 11:24:49,63.297783,180.899976,877.862926,97.25
1921, 11:24:49,63.415956,181.481297,880.160511,97.25
1922, 11:24:49,63.267124,181.201941,877.461648,97.25
1923, 11:24:49,62.531526,178.363518,867.632812,97.25
1924, 11:24:49,61.806068,174.645005,856.975142,97.25
1925, 11:24:49,61.428701,171.910156,851.307528,97.25
1926, 11:24:49,61.289694,170.461884,848.697443,97.25
1927, 11:24:49,61.246094,169.82777,847.904119,97.25
1928, 11:24:49,61.170415,169.26598,845.28054,97.25
1929, 11:24:49,61.139678,168.922348,845.474432,97.25
1930, 11:24:49,61.158973,168.905895,845.455256,97.25
1931, 11:24:49,61.253157,169.142519,846.46875,97.25
1932, 11:24:49,61.313802,169.382221,847.892756,97.25
1933, 11:24:49,61.302754,169.40116,847.705256,97.25
1934, 11:24:49,61.284604,169.365649,847.034801,97.25
1935, 11:24:49,61.304609,169.449811,848.252841,97.25
1936, 11:24:49,61.404869,169.777107,848.708097,97.25
1937, 11:24:49,61.524306,170.357481,851.511364,97.25
1938, 11:24:49,61.605074,170.962476,852.24929,97.25
1939, 11:24:49,61.754616,171.575402,854.122869,97.25
1940, 11:24:49,61.838936,172.080256,855.566761,97.25
1941, 11:24:49,61.920139,172.567708,856.514205,97.25
1942, 11:24:49,61.963857,173.029356,857.553977,97.25
1943, 11:24:49,62.062579,173.536695,859.012784,97.25
1944, 11:24:49,62.181147,174.075166,859.067472,97.25
1945, 11:24:49,62.220486,174.576705,861.448864,97.25
1946, 11:24:49,62.310133,175.16572,861.954545,97.25
1947, 11:24:49,62.419981,175.72822,863.78125,97.25
1948, 11:24:49,62.507655,176.227036,864.78267,97.25
1949, 11:24:49,62.589725,176.726562,866.87642,97.25
1950, 11:24:50,62.688408,177.323272,867.539062,97.0
1951, 11:24:50,62.745305,177.902107,869.398438,97.0
1952, 11:24:50,62.860717,178.4884,871.038352,97.0
1953, 11:24:50,62.927399,179.050663,871.917614,97.0
1954, 11:24:50,63.052636,179.643703,874.12358,97.0
1955, 11:24:50,63.051491,179.78705,874.477983,97.0
1956, 11:24:50,62.454703,177.715909,865.752841,97.0
1957, 11:24:50,61.743726,174.205611,855.824574,97.0
1958, 11:24:50,61.331005,171.350497,849.026278,97.0
1959, 11:24:50,61.164181,169.805043,847.185369,97.0
1960, 11:24:50,61.159959,169.268229,845.774148,97.0
1961, 11:24:50,61.1497,168.984612,846.007102,97.0
1962, 11:24:50,61.093355,168.672112,844.305398,97.0
1963, 11:24:50,61.130524,168.732008,845.332386,97.0
1964, 11:24:50,61.200955,168.98402,845.850142,97.0
1965, 11:24:50,61.242188,169.259706,847.285511,97.0
1966, 11:24:50,61.285906,169.287169,847.427557,97.0
1967, 11:24:50,61.277936,169.346591,847.460227,97.0
1968, 11:24:50,61.331795,169.430043,847.963778,97.0
1969, 11:24:50,61.415996,169.826586,848.709517,97.0
1970, 11:24:50,61.53413,170.311671,850.290483,97.0
1971, 11:24:50,61.647057,170.863991,852.578835,97.0
1972, 11:24:50,61.748816,171.459517,853.492898,97.0
1973, 11:24:50,61.872633,172.074337,855.585227,97.0
1974, 11:24:50,61.953401,172.662287,856.703835,97.0
1975, 11:24:50,62.048848,173.222775,858.640625,97.0
1976, 11:24:50,62.099353,173.625237,859.115057,97.0
1977, 11:24:50,62.180792,174.185369,861.214489,97.0
1978, 11:24:50,62.246528,174.692708,860.977273,97.0
1979, 11:24:50,62.365491,175.247988,863.541903,97.0
1980, 11:24:51,62.480863,175.875829,864.703835,96.975
1981, 11:24:51,62.584201,176.494555,866.080966,96.975
1982, 11:24:51,62.619673,176.814986,866.443892,96.975
1983, 11:24:51,62.272964,175.651278,862.180398,96.975
1984, 11:24:51,61.678307,172.778764,853.74929,96.975
1985, 11:24:51,61.292929,170.310133,848.303977,96.975
1986, 11:24:51,61.229759,169.199692,846.237926,96.975
1987, 11:24:51,61.218632,168.991122,846.165483,96.975
1988, 11:24:51,61.236348,168.907434,845.759943,96.975
1989, 11:24:51,61.277778,168.973485,846.625,96.975
1990, 11:24:51,61.370068,169.324692,847.522017,96.975
1991, 11:24:51,61.49349,169.865412,850.394176,96.975
1992, 11:24:51,61.525765,170.047467,849.816051,96.975
1993, 11:24:51,61.545336,170.163471,849.801847,96.975
1994, 11:24:51,61.536616,170.225852,850.301136,96.975
1995, 11:24:51,61.603733,170.491122,851.648438,96.975
1996, 11:24:51,61.721275,170.992898,852.423295,96.975
1997, 11:24:51,61.83866,171.620147,854.459517,96.975
1998, 11:24:51,61.977352,172.373816,856.02983,96.975
1999, 11:24:51,62.00363,172.928977,858.011364,96.975
2000, 11:24:51,62.161143,173.636837,859.21875,96.975
2001, 11:24:51,62.259233,174.343987,861.259943,96.975
2002, 11:24:51,62.357481,174.969697,862.585227,96.975
2003, 11:24:51,62.4695,175.502249,864.107244,96.975
2004, 11:24:51,62.522372,176.073745,864.53054,96.975
2005, 11:24:51,62.626144,176.658736,866.534801,96.975
2006, 11:24:51,62.679609,177.18608,867.610795,96.975
2007, 11:24:51,62.80161,177.855587,869.747159,96.975
2008, 11:24:51,62.879419,178.523674,871.034091,96.975
2009, 11:24:51,62.994871,179.178267,873.262784,96.975
2010, 11:24:52,63.111466,179.843868,874.239347,96.975
2011, 11:24:52,63.225142,180.507812,876.461648,96.975
2012, 11:24:52,63.3256,181.132576,878.03125,96.975
2013, 11:24:52,63.419192,181.750473,879.71875,96.975
2014, 11:24:52,63.530777,182.359375,881.161932,96.975
2015, 11:24:52,63.612374,183.158617,882.772727,96.975
2016, 11:24:52,63.738242,183.721828,885.598011,96.975
2017, 11:24:52,63.476562,183.071733,882.237216,96.975
2018, 11:24:52,62.733704,180.06617,869.959517,96.975
2019, 11:24:52,62.164023,177.131747,862.270597,96.975
2020, 11:24:52,61.930871,175.31108,857.690341,96.975
2021, 11:24:52,61.949377,174.674834,857.449574,96.975
2022, 11:24:52,62.013849,174.560014,857.297585,96.975
2023, 11:24:52,62.043876,174.561553,858.397727,96.975
2024, 11:24:52,62.096985,174.66785,858.816761,96.975
2025, 11:24:52,62.16205,175.006037,860.43679,96.975
2026, 11:24:52,62.221078,175.242779,860.127131,96.975
2027, 11:24:52,62.212516,175.154593,860.887784,96.975
2028, 11:24:52,62.167298,174.978693,859.642045,96.975
2029, 11:24:52,62.183239,174.954545,859.622159,96.975
2030, 11:24:52,62.220249,175.120502,859.586648,96.975
2031, 11:24:52,62.283854,175.476562,861.00142,96.975
2032, 11:24:52,62.411813,176.107126,862.358665,96.975
2033, 11:24:52,62.476681,176.68241,865.077415,96.975
2034, 11:24:52,62.578046,177.177794,865.308239,96.975
2035, 11:24:52,62.670099,177.679332,867.340199,96.975
2036, 11:24:52,62.719184,178.074692,868.260653,96.975
2037, 11:24:52,62.773595,178.512074,869.666193,96.975
2038, 11:24:52,62.82773,178.949574,870.115057,96.975
2039, 11:24:52,62.868174,179.260298,871.246449,96.975
2040, 11:24:53,62.971551,179.71295,872.022017,96.975
2041, 11:24:53,63.077494,180.294034,875.073864,96.975
2042, 11:24:53,63.172506,180.830492,876.295455,96.975
2043, 11:24:53,63.249921,181.216619,876.930398,96.975
2044, 11:24:53,62.935646,180.34955,872.466619,96.975
2045, 11:24:53,62.300347,177.665246,863.65625,96.975
2046, 11:24:53,61.876342,175.037169,857.433239,96.975
2047, 11:24:53,61.777896,173.636245,854.496449,96.975
2048, 11:24:53,61.799874,173.258049,854.224432,96.975
2049, 11:24:53,61.81901,173.150213,854.992188,96.975
2050, 11:24:53,61.840159,173.126539,855.091619,96.975
2051, 11:24:53,61.900095,173.335701,856.454545,96.975
2052, 11:24:53,61.985164,173.710701,856.78125,96.975
2053, 11:24:53,62.005248,173.917259,857.236506,96.975
2054, 11:24:53,62.013692,173.991832,857.496449,96.975
2055, 11:24:53,61.993332,173.943537,858.198153,96.975
2056, 11:24:53,62.009785,173.976326,857.610795,96.975
2057, 11:24:53,62.085425,174.279948,858.850142,96.975
2058, 11:24:53,62.149266,174.778291,859.067472,96.975
2059, 11:24:53,62.252762,175.379025,861.441761,96.975
2060, 11:24:53,62.341817,175.87867,862.016335,96.975
2061, 11:24:53,62.440893,176.385653,863.90483,96.975
2062, 11:24:53,62.488439,176.948745,865.098722,96.975
2063, 11:24:53,62.572128,177.506155,866.528409,96.975
2064, 11:24:53,62.653449,177.934777,867.46946,96.975
2065, 11:24:53,62.748935,178.434304,869.512074,96.975
2066, 11:24:53,62.790009,178.879025,869.84233,96.975
2067, 11:24:53,62.878078,179.325994,871.231534,96.975
2068, 11:24:53,62.97096,179.956913,873.048295,96.975
2069, 11:24:53,63.061119,180.473603,874.577415,96.975
2070, 11:24:54,63.150055,181.040128,875.93679,96.975
2071, 11:24:54,63.248619,181.716974,877.739347,96.975
2072, 11:24:54,63.352352,182.278646,879.044034,96.975
2073, 11:24:54,63.447719,182.813802,881.487926,96.975
2074, 11:24:54,63.554017,183.450402,883.364347,96.975
2075, 11:24:54,63.616911,183.912287,885.039062,96.975
2076, 11:24:54,63.698943,184.533854,886.15483,96.975
2077, 11:24:54,63.757536,185.122988,886.695312,96.975
2078, 11:24:54,63.84087,185.645241,888.388494,96.975
2079, 11:24:54,63.411498,184.36991,883.59446,96.975
2080, 11:24:54,62.631708,180.733191,871.458807,96.975
2081, 11:24:54,62.033183,177.324929,861.526278,96.975
2082, 11:24:54,61.788707,175.348603,856.580256,96.975
2083, 11:24:54,61.793718,174.550663,856.474432,96.975
2084, 11:24:54,61.796007,174.224195,856.77983,96.975
2085, 11:24:54,61.775055,173.926491,855.377131,96.975
2086, 11:24:54,61.782079,173.752959,854.887074,96.975
2087, 11:24:54,61.811277,173.82777,856.253551,96.975
2088, 11:24:54,61.867109,173.963542,855.806818,96.975
2089, 11:24:54,61.86265,173.965791,856.979403,96.975
2090, 11:24:54,61.840515,173.858191,856.038352,96.975
2091, 11:24:54,61.78926,173.720999,855.879972,96.975
2092, 11:24:54,61.823193,173.795336,856.070312,96.975
2093, 11:24:54,61.886087,174.089607,856.71946,96.975
2094, 11:24:54,62.04577,174.703598,858.036932,96.975
2095, 11:24:54,62.130563,175.242543,860.830256,96.975
2096, 11:24:54,62.211884,175.754498,861.703125,96.975
2097, 11:24:54,62.310685,176.152225,862.487216,96.975
2098, 11:24:54,62.374092,176.621804,863.972301,96.975
2099, 11:24:54,62.431266,177.07268,865.038352,96.975
2100, 11:24:55,62.527778,177.53267,865.599432,96.975
2101, 11:24:55,62.564473,177.951941,866.884943,96.975
2102, 11:24:55,62.597064,178.358428,867.329545,96.975
2103, 11:24:55,62.702849,178.737334,869.753551,96.975
2104, 11:24:55,62.780066,179.21946,870.580966,96.975
2105, 11:24:55,62.87133,179.779711,872.629972,96.975
2106, 11:24:55,62.969026,180.298651,873.720881,96.975
2107, 11:24:55,63.086056,180.975024,876.395597,96.975
2108, 11:24:55,63.124921,181.523438,875.78267,96.975
2109, 11:24:55,63.237098,181.969342,878.497869,96.975
2110, 11:24:55,63.337397,182.494673,879.825994,96.975
2111, 11:24:55,63.438684,183.099195,881.200284,96.975
2112, 11:24:55,63.462831,183.387547,881.978693,96.975
2113, 11:24:55,63.015901,181.909446,876.056108,96.975
2114, 11:24:55,62.244634,178.314867,864.502841,96.975
2115, 11:24:55,61.715238,175.304332,856.206676,96.975
2116, 11:24:55,61.501618,173.52616,852.693892,96.975
2117, 11:24:55,61.486269,172.794034,852.786932,96.975
2118, 11:24:55,61.536419,172.587476,852.397017,96.975
2119, 11:24:55,61.534328,172.349669,852.62358,96.975
2120, 11:24:55,61.555871,172.343277,852.34375,96.975
2121, 11:24:55,61.602194,172.553267,852.867898,96.975
2122, 11:24:55,61.644334,172.685369,852.754261,96.975
2123, 11:24:55,61.638652,172.740767,853.578125,96.975
2124, 11:24:55,61.624053,172.630682,852.9375,96.975
2125, 11:24:55,61.616201,172.675781,853.165483,96.975
2126, 11:24:55,61.665641,172.860085,853.06108,96.975
2127, 11:24:55,61.782158,173.330374,855.754972,96.975
2128, 11:24:55,61.887587,173.865885,856.806108,96.975
2129, 11:24:55,61.981179,174.415128,857.84304,96.975
2130, 11:24:56,62.109572,175.144058,860.225142,96.95
2131, 11:24:56,62.176334,175.58724,861.182528,96.95
2132, 11:24:56,62.234691,176.109375,860.630682,96.95
2133, 11:24:56,62.351602,176.570431,863.013494,96.95
2134, 11:24:56,62.420178,177.162524,864.713778,96.95
2135, 11:24:56,62.532158,177.676491,867.110085,96.95
2136, 11:24:56,62.601878,178.155066,867.40483,96.95
2137, 11:24:56,62.686237,178.724905,869.207386,96.95
2138, 11:24:56,62.787524,179.221473,870.584517,96.95
2139, 11:24:56,62.842566,179.76965,870.75142,96.95
2140, 11:24:56,62.970604,180.411813,873.939631,96.95
2141, 11:24:56,63.093987,180.982718,876.055398,96.95
2142, 11:24:56,63.219855,181.654356,877.798295,96.95
2143, 11:24:56,63.330137,182.28776,879.641335,96.95
2144, 11:24:56,63.3997,182.736032,880.700284,96.95
2145, 11:24:56,62.953243,181.440696,874.965199,96.95
2146, 11:24:56,62.202415,178.182528,863.143466,96.95
2147, 11:24:56,61.644413,175.278409,855.292614,96.95
2148, 11:24:56,61.454033,173.504143,851.84304,96.95
2149, 11:24:56,61.498895,173.030777,851.309659,96.95
2150, 11:24:56,61.52545,172.924834,851.693892,96.95
2151, 11:24:56,61.547388,172.958925,853.239347,96.95
2152, 11:24:56,61.634312,173.212595,853.147727,96.95
2153, 11:24:56,61.707386,173.581913,854.926136,96.95
2154, 11:24:56,61.752091,173.771899,854.557528,96.95
2155, 11:24:56,61.709517,173.607718,854.370739,96.95
2156, 11:24:56,61.64895,173.488045,853.84304,96.95
2157, 11:24:56,61.681858,173.514323,854.40696,96.95
2158, 11:24:56,61.729601,173.783026,854.286222,96.95
2159, 11:24:56,61.853299,174.26965,856.882102,96.95
2160, 11:24:57,61.99562,174.889796,858.216619,96.95
2161, 11:24:57,62.072483,175.546993,859.852983,96.95
2162, 11:24:57,62.173651,176.179096,860.776278,96.95
2163, 11:24:57,62.267282,176.681108,862.254261,96.95
2164, 11:24:57,62.3561,177.163471,863.881392,96.95
2165, 11:24:57,62.368292,177.51018,864.677557,96.95
2166, 11:24:57,62.466856,178.015152,866.0625,96.95
2167, 11:24:57,62.524621,178.454072,867.127841,96.95
2168, 11:24:57,62.66355,178.934304,868.918324,96.95
2169, 11:24:57,62.767164,179.501776,870.183949,96.95
2170, 11:24:57,62.620975,179.37429,868.526989,96.95
2171, 11:24:57,62.097932,177.235559,861.336648,96.95
2172, 11:24:57,61.462595,174.277936,851.582386,96.95
2173, 11:24:57,61.184225,172.119437,848.159801,96.95
2174, 11:24:57,61.118016,171.140507,845.700994,96.95
2175, 11:24:57,61.147175,170.98982,846.703125,96.95
2176, 11:24:57,61.190025,171.031723,847.565341,96.95
2177, 11:24:57,61.303701,171.322562,848.083097,96.95
2178, 11:24:57,61.428188,171.906723,849.497159,96.95
2179, 11:24:57,61.442195,172.10973,850.664062,96.95
2180, 11:24:57,61.419271,172.0509,849.995739,96.95
2181, 11:24:57,61.403685,171.927912,850.110085,96.95
2182, 11:24:57,61.376776,171.950876,849.892756,96.95
2183, 11:24:57,61.464331,172.181345,850.284091,96.95
2184, 11:24:57,61.579269,172.70277,851.557528,96.95
2185, 11:24:57,61.690104,173.316051,853.504261,96.95
2186, 11:24:57,61.814946,173.990767,855.77983,96.95
2187, 11:24:57,61.906053,174.622041,857.87429,96.95
2188, 11:24:57,62.002367,175.099432,858.303977,96.95
2189, 11:24:57,62.094421,175.67152,859.077415,96.95
2190, 11:24:58,62.121962,176.028764,860.325994,96.95
2191, 11:24:58,62.242306,176.535156,862.40696,96.95
2192, 11:24:58,62.323627,177.041903,863.225852,96.95
2193, 11:24:58,62.387468,177.565341,865.258523,96.95
2194, 11:24:58,62.491793,178.118845,866.508523,96.95
2195, 11:24:58,62.573548,178.570076,867.460227,96.95
2196, 11:24:58,62.691959,179.173887,868.90696,96.95
2197, 11:24:58,62.80161,179.710227,870.724432,96.95
2198, 11:24:58,62.911616,180.318182,872.551136,96.95
2199, 11:24:58,63.002407,180.850497,874.767756,96.95
2200, 11:24:58,63.053622,181.40187,875.465199,96.95
2201, 11:24:58,63.155106,182.072325,877.243608,96.95
2202, 11:24:58,63.274897,182.594579,878.982244,96.95
2203, 11:24:58,62.99562,181.857126,875.489347,96.95
2204, 11:24:58,62.092251,178.240767,862.455966,96.95
2205, 11:24:58,61.338384,174.400568,851.602273,96.95
2206, 11:24:58,60.957505,171.722893,844.618608,96.95
2207, 11:24:58,60.865649,170.344579,842.996449,96.95
2208, 11:24:58,60.855784,169.662524,842.304688,96.95
2209, 11:24:58,60.840672,169.207623,841.862216,96.95
2210, 11:24:58,60.771741,168.757931,840.71804,96.95
2211, 11:24:58,60.813605,168.745265,841.795455,96.95
2212, 11:24:58,60.852549,168.891454,841.070312,96.95
2213, 11:24:58,60.916233,169.082031,842.401278,96.95
2214, 11:24:58,60.89611,169.096946,842.246449,96.95
2215, 11:24:58,60.914023,169.068774,843.057528,96.95
2216, 11:24:58,60.950402,169.177438,842.183949,96.95
2217, 11:24:58,61.012468,169.444602,844.585227,96.95
2218, 11:24:58,61.12867,170.019531,845.736506,96.95
2219, 11:24:58,61.253867,170.68821,847.65767,96.95
2220, 11:24:59,61.383759,171.4491,848.973011,96.95
2221, 11:24:59,61.496409,172.081084,851.977983,96.95
2222, 11:24:59,61.592645,172.672822,851.767045,96.95
2223, 11:24:59,61.693261,173.236979,853.31392,96.95
2224, 11:24:59,61.766572,173.710701,854.948864,96.95
2225, 11:24:59,61.863873,174.352036,856.955966,96.95
2226, 11:24:59,61.898872,174.809777,857.040483,96.95
2227, 11:24:59,61.986466,175.431937,858.855824,96.95
2228, 11:24:59,62.116556,176.013968,859.941761,96.95
2229, 11:24:59,62.27616,176.709635,862.757812,96.95
2230, 11:24:59,62.39027,177.479522,863.607244,96.95
2231, 11:24:59,62.33795,177.622277,864.381392,96.95
2232, 11:24:59,61.720802,175.504735,855.815341,96.95
2233, 11:24:59,61.057094,172.138613,847.399858,96.95
2234, 11:24:59,60.694523,169.469934,840.31108,96.95
2235, 11:24:59,60.558515,168.06901,837.473722,96.95
2236, 11:24:59,60.540009,167.677794,837.524148,96.95
2237, 11:24:59,60.540009,167.464252,836.887784,96.95
2238, 11:24:59,60.540483,167.338778,836.93892,96.95
2239, 11:24:59,60.600971,167.561908,837.868608,96.95
2240, 11:24:59,60.714134,168.048651,838.970881,96.95
2241, 11:24:59,60.777344,168.362808,840.404119,96.95
2242, 11:24:59,60.766651,168.453362,839.93892,96.95
2243, 11:24:59,60.772214,168.476207,840.462358,96.95
2244, 11:24:59,60.826271,168.64027,840.764915,96.95
2245, 11:24:59,60.896149,168.972064,841.607955,96.95
2246, 11:24:59,61.031368,169.71295,843.851562,96.95
