frame_index,timestamp,R,G,B,average_SpO2
0, 10:28:37,55.300347,204.539299,943.551136,97.975
1, 10:28:37,55.402936,205.09375,944.122159,97.975
2, 10:28:37,55.445904,205.546993,944.230824,97.975
3, 10:28:37,55.619042,206.062145,948.296165,97.975
4, 10:28:37,55.71003,206.387192,951.200994,97.975
5, 10:28:37,55.813408,206.899976,952.763494,97.975
6, 10:28:37,55.963108,207.295099,954.622869,97.975
7, 10:28:37,56.006984,208.001065,955.398438,97.975
8, 10:28:37,56.133207,208.438447,957.380682,97.975
9, 10:28:37,56.234178,208.94401,959.419744,97.975
10, 10:28:37,56.287169,209.322206,960.598011,97.975
11, 10:28:37,56.227391,209.199219,959.391335,97.975
12, 10:28:37,55.799676,207.419389,952.351562,97.975
13, 10:28:37,55.376342,205.087831,943.660511,97.975
14, 10:28:37,55.073982,203.417022,938.789062,97.975
15, 10:28:37,54.966027,202.638139,937.016335,97.975
16, 10:28:37,54.901436,202.320786,935.137784,97.975
17, 10:28:37,54.863479,202.230587,935.153409,97.975
18, 10:28:37,54.948153,202.496922,936.18608,97.975
19, 10:28:37,55.053267,202.985559,938.975852,97.975
20, 10:28:37,55.138613,203.415365,939.958097,97.975
21, 10:28:37,55.181976,203.64536,940.84375,97.975
22, 10:28:37,55.206321,203.725497,941.097301,97.975
23, 10:28:37,55.306108,204.109612,942.927557,97.975
24, 10:28:37,55.354324,204.392519,944.130682,97.975
25, 10:28:37,55.451271,204.843868,945.87571,97.975
26, 10:28:37,55.536853,205.2616,946.541193,97.975
27, 10:28:37,55.67949,205.882221,949.245028,97.975
28, 10:28:37,55.800939,206.44259,951.479403,97.975
29, 10:28:37,55.861427,206.747633,952.548295,97.975
30, 10:28:38,55.972301,207.345407,953.981534,98.0
31, 10:28:38,55.783578,206.660393,947.87429,98.0
32, 10:28:38,55.886048,207.080966,949.127841,98.0
33, 10:28:38,55.982678,207.502959,951.389915,98.0
34, 10:28:38,56.063605,207.913826,953.215909,98.0
35, 10:28:38,56.185606,208.452178,953.965909,98.0
36, 10:28:38,56.261877,208.93241,955.401278,98.0
37, 10:28:38,56.366793,209.34375,957.747159,98.0
38, 10:28:38,56.426452,209.72822,957.985795,98.0
39, 10:28:38,56.250158,209.102746,955.426136,98.0
40, 10:28:38,55.871567,207.215554,949.239347,98.0
41, 10:28:38,55.456439,204.965909,941.585227,98.0
42, 10:28:38,55.238755,203.666548,937.783381,98.0
43, 10:28:38,55.126894,203.149148,936.1875,98.0
44, 10:28:38,55.124211,203.019886,935.789773,98.0
45, 10:28:38,55.140112,203.082268,935.840199,98.0
46, 10:28:38,55.221709,203.432173,937.115767,98.0
47, 10:28:38,55.374092,203.991122,940.361506,98.0
48, 10:28:38,55.39465,204.168797,940.419034,98.0
49, 10:28:38,55.457978,204.436908,941.084517,98.0
50, 10:28:38,55.513534,204.692116,941.772017,98.0
51, 10:28:38,55.577533,204.959399,943.296165,98.0
52, 10:28:38,55.69042,205.446259,945.433239,98.0
53, 10:28:38,55.773714,205.903054,947.233665,98.0
54, 10:28:38,55.872554,206.35393,948.56392,98.0
55, 10:28:38,55.970881,206.807528,950.348011,98.0
56, 10:28:38,56.065341,207.271307,952.298295,98.0
57, 10:28:38,56.181147,207.791075,953.286222,98.0
58, 10:28:38,56.237887,208.205137,954.483665,98.0
59, 10:28:38,56.342606,208.720526,956.797585,98.0
60, 10:28:39,56.415996,209.071378,958.121449,97.75
61, 10:28:39,56.500829,209.512902,958.955256,97.75
62, 10:28:39,56.573272,210.014796,960.395597,97.75
63, 10:28:39,56.637429,210.27545,961.752131,97.75
64, 10:28:39,56.759943,210.834754,963.278409,97.75
65, 10:28:39,56.846828,211.235085,964.856534,97.75
66, 10:28:39,56.880169,211.543442,965.652699,97.75
67, 10:28:39,56.691682,210.683949,962.632102,97.75
68, 10:28:39,56.164102,208.243253,953.189631,97.75
69, 10:28:39,55.745975,205.835938,944.740057,97.75
70, 10:28:39,55.495384,204.170336,940.851562,97.75
71, 10:28:39,55.373106,203.360795,938.696023,97.75
72, 10:28:39,55.316012,202.961293,935.770597,97.75
73, 10:28:39,55.299716,202.963068,936.514205,97.75
74, 10:28:39,55.368845,203.12642,938.136364,97.75
75, 10:28:39,55.422664,203.445549,939.690341,97.75
76, 10:28:39,55.529908,203.873343,940.856534,97.75
77, 10:28:39,55.558909,203.931463,941.18821,97.75
78, 10:28:39,55.624092,204.123698,942.279119,97.75
79, 10:28:39,55.674164,204.352509,942.507102,97.75
80, 10:28:39,55.746291,204.710464,943.572443,97.75
81, 10:28:39,55.884509,205.272372,946.537642,97.75
82, 10:28:39,55.915483,205.56321,946.56108,97.75
83, 10:28:39,56.034091,206.090909,948.917614,97.75
84, 10:28:39,56.100182,206.412287,949.595881,97.75
85, 10:28:39,56.208886,206.941998,951.583807,97.75
86, 10:28:39,56.268111,207.333215,953.485085,97.75
87, 10:28:39,56.380642,207.806226,955.024858,97.75
88, 10:28:39,56.460819,208.241359,956.164062,97.75
89, 10:28:39,56.542969,208.663471,957.18821,97.75
90, 10:28:40,56.61557,209.104285,958.986506,97.775
91, 10:28:40,56.688723,209.388613,959.942472,97.775
92, 10:28:40,56.813802,209.939039,962.446733,97.775
93, 10:28:40,56.846354,210.422112,962.740057,97.775
94, 10:28:40,56.937539,210.773319,963.949574,97.775
95, 10:28:40,56.943419,210.842566,964.808239,97.775
96, 10:28:40,56.617306,209.309777,958.122869,97.775
97, 10:28:40,56.123303,206.802202,949.935369,97.775
98, 10:28:40,55.722656,204.328954,941.144176,97.775
99, 10:28:40,55.513573,203.107008,937.198864,97.775
100, 10:28:40,55.433318,202.471354,935.603693,97.775
101, 10:28:40,55.364741,202.184659,935.034091,97.775
102, 10:28:40,55.386403,202.212713,935.534801,97.775
103, 10:28:40,55.469066,202.513258,937.517045,97.775
104, 10:28:40,55.603259,203.041785,939.59446,97.775
105, 10:28:40,55.616911,203.232836,939.575994,97.775
106, 10:28:40,55.638179,203.398438,940.151989,97.775
107, 10:28:40,55.740294,203.722301,941.65483,97.775
108, 10:28:40,55.800623,203.961056,942.024858,97.775
109, 10:28:40,55.917693,204.461884,944.208807,97.775
110, 10:28:40,55.99708,204.870028,945.620739,97.775
111, 10:28:40,56.113834,205.422467,947.216619,97.775
112, 10:28:40,56.193497,205.962121,949.321023,97.775
113, 10:28:40,56.271465,206.378788,951.153409,97.775
114, 10:28:40,56.412208,206.917969,952.252131,97.775
115, 10:28:40,56.466146,207.308949,953.40767,97.775
116, 10:28:40,56.569878,207.82706,955.612926,97.775
117, 10:28:40,56.647727,208.306345,956.625,97.775
118, 10:28:40,56.704822,208.636719,958.323153,97.775
119, 10:28:40,56.838423,209.152107,960.057528,97.775
120, 10:28:41,56.888218,209.557647,960.976562,98.025
121, 10:28:41,56.98402,210.061435,962.612926,98.025
122, 10:28:41,57.075166,210.453717,964.148438,98.025
123, 10:28:41,57.138849,210.837476,965.056108,98.025
124, 10:28:41,57.110993,211.002486,964.992188,98.025
125, 10:28:41,56.755327,209.38956,958.840199,98.025
126, 10:28:41,56.301215,206.960938,950.887784,98.025
127, 10:28:41,55.934186,204.786932,943.355114,98.025
128, 10:28:41,55.770281,203.734138,940.515625,98.025
129, 10:28:41,55.719105,203.358546,939.702415,98.025
130, 10:28:41,55.662484,203.194839,939.370739,98.025
131, 10:28:41,55.726641,203.42803,940.463068,98.025
132, 10:28:41,55.818537,203.863755,942.435369,98.025
133, 10:28:41,55.902107,204.238045,943.104403,98.025
134, 10:28:41,55.896978,204.427202,942.693892,98.025
135, 10:28:41,55.972341,204.666075,944.203835,98.025
136, 10:28:41,56.036735,204.90045,945.825994,98.025
137, 10:28:41,56.058988,205.095526,946.06179,98.025
138, 10:28:41,56.182765,205.558239,947.963068,98.025
139, 10:28:41,56.245541,205.933594,948.794744,98.025
140, 10:28:41,56.343434,206.433712,951.238636,98.025
141, 10:28:41,56.425623,206.939276,952.666903,98.025
142, 10:28:41,56.461963,207.231534,953.110795,98.025
143, 10:28:41,56.60172,207.84304,955.137784,98.025
144, 10:28:41,56.631234,208.15696,956.512784,98.025
145, 10:28:41,56.729759,208.587476,958.15554,98.025
146, 10:28:41,56.836135,209.037287,959.789062,98.025
147, 10:28:41,56.875118,209.373935,960.368608,98.025
148, 10:28:41,56.973445,209.834635,962.638494,98.025
149, 10:28:41,57.020952,210.175071,963.203835,98.025
150, 10:28:42,57.087516,210.598722,964.725852,98.025
151, 10:28:42,56.979759,210.155658,962.37429,98.025
152, 10:28:42,56.538668,208.086648,954.090909,98.025
153, 10:28:42,56.118213,205.787879,946.806818,98.025
154, 10:28:42,55.772964,204.003078,941.521307,98.025
155, 10:28:42,55.612374,203.344223,937.960227,98.025
156, 10:28:42,55.585859,203.142519,938.1875,98.025
157, 10:28:42,55.616517,203.17152,939.222301,98.025
158, 10:28:42,55.723406,203.573627,940.651989,98.025
159, 10:28:42,55.825718,203.987571,942.277699,98.025
160, 10:28:42,55.895439,204.431581,943.580966,98.025
161, 10:28:42,55.879972,204.443892,943.74858,98.025
162, 10:28:42,55.91355,204.633641,944.557528,98.025
163, 10:28:42,55.971828,204.944839,945.353693,98.025
164, 10:28:42,56.060922,205.305871,946.545455,98.025
165, 10:28:42,56.166746,205.787642,948.100852,98.025
166, 10:28:42,56.224471,206.117543,949.526278,98.025
167, 10:28:42,56.327178,206.70928,950.886364,98.025
168, 10:28:42,56.364781,206.972183,951.889915,98.025
169, 10:28:42,56.484967,207.54723,954.766335,98.025
170, 10:28:42,56.551886,207.918442,955.791903,98.025
171, 10:28:42,56.612098,208.341501,956.929688,98.025
172, 10:28:42,56.677162,208.680634,958.242898,98.025
173, 10:28:42,56.736269,209.016572,959.133523,98.025
174, 10:28:42,56.806068,209.423887,960.185369,98.025
175, 10:28:42,56.866872,209.836411,961.09517,98.025
176, 10:28:42,56.948351,210.252723,962.754972,98.025
177, 10:28:42,57.018979,210.615175,963.449574,98.025
178, 10:28:42,56.949613,210.596473,963.428267,98.025
179, 10:28:42,56.618174,209.006984,957.431108,98.025
180, 10:28:43,56.025923,206.151634,946.722301,98.025
181, 10:28:43,55.579269,203.708452,939.847301,98.025
182, 10:28:43,55.324771,202.198745,933.368608,98.025
183, 10:28:43,55.160432,201.500237,931.299716,98.025
184, 10:28:43,55.129893,201.222538,931.161932,98.025
185, 10:28:43,55.130524,201.20786,931.28125,98.025
186, 10:28:43,55.220486,201.693655,932.715909,98.025
187, 10:28:43,55.298059,201.942472,935.12642,98.025
188, 10:28:43,55.385377,202.289181,935.845881,98.025
189, 10:28:43,55.410866,202.434777,936.50071,98.025
190, 10:28:43,55.444366,202.638494,936.990057,98.025
191, 10:28:43,55.519137,202.887902,937.918324,98.025
192, 10:28:43,55.612216,203.322443,939.744318,98.025
193, 10:28:43,55.720447,203.871094,941.442472,98.025
194, 10:28:43,55.807173,204.264323,942.685369,98.025
195, 10:28:43,55.894531,204.735204,943.959517,98.025
196, 10:28:43,55.994476,205.231534,946.019886,98.025
197, 10:28:43,56.051926,205.528883,947.102273,98.025
198, 10:28:43,56.1439,206.075166,948.857244,98.025
199, 10:28:43,56.218434,206.443655,950.15625,98.025
200, 10:28:43,56.303504,206.941288,952.096591,98.025
201, 10:28:43,56.36849,207.220526,953.12429,98.025
202, 10:28:43,56.452928,207.665128,954.189631,98.025
203, 10:28:43,56.556581,208.149858,955.893466,98.025
204, 10:28:43,56.612216,208.507102,957.244318,98.025
205, 10:28:43,56.703993,208.931581,958.521307,98.025
206, 10:28:43,56.591738,208.537524,956.608665,98.025
207, 10:28:43,56.137113,206.552438,948.181108,98.025
208, 10:28:43,55.585267,203.73402,939.051847,98.025
209, 10:28:43,55.247948,201.725852,932.474432,98.025
210, 10:28:44,55.063605,200.737216,929.122159,98.0
211, 10:28:44,54.962161,200.311198,927.997869,98.0
212, 10:28:44,54.968237,200.322325,928.570312,98.0
213, 10:28:44,54.999842,200.528883,929.485795,98.0
214, 10:28:44,55.154632,201.06901,931.516335,98.0
215, 10:28:44,55.278883,201.496686,933.463068,98.0
216, 10:28:44,55.293008,201.715199,934.225852,98.0
217, 10:28:44,55.292693,201.932528,934.12642,98.0
218, 10:28:44,55.340199,202.022017,934.745739,98.0
219, 10:28:44,55.465791,202.512429,936.412642,98.0
220, 10:28:44,55.544863,202.802675,937.361506,98.0
221, 10:28:44,55.657513,203.337121,939.971591,98.0
222, 10:28:44,55.74128,203.820431,941.31179,98.0
223, 10:28:44,55.83432,204.232599,942.489347,98.0
224, 10:28:44,55.933002,204.763021,944.765625,98.0
225, 10:28:44,55.988715,205.086884,945.492898,98.0
226, 10:28:44,56.079901,205.528527,947.185369,98.0
227, 10:28:44,56.148595,206.017756,948.955966,98.0
228, 10:28:44,56.23836,206.377959,949.852983,98.0
229, 10:28:44,56.325994,206.772964,951.74858,98.0
230, 10:28:44,56.398753,207.124763,952.666193,98.0
231, 10:28:44,56.47747,207.556463,954.014915,98.0
232, 10:28:44,56.497159,207.863163,954.9375,98.0
233, 10:28:44,56.456439,207.758049,954.369318,98.0
234, 10:28:44,56.031053,205.853101,946.402699,98.0
235, 10:28:44,55.545139,203.190341,938.034091,98.0
236, 10:28:44,55.16422,201.391809,930.370739,98.0
237, 10:28:44,54.95715,200.333097,927.794034,98.0
238, 10:28:44,54.916746,200.147491,927.163352,98.0
239, 10:28:44,54.921125,200.176728,927.59446,98.0
240, 10:28:45,54.991556,200.503551,928.802557,97.975
241, 10:28:45,55.09592,200.954427,930.550426,97.975
242, 10:28:45,55.139639,201.206795,931.297585,97.975
243, 10:28:45,55.179175,201.323035,932.15696,97.975
244, 10:28:45,55.176255,201.342685,931.760653,97.975
245, 10:28:45,55.200245,201.617779,932.897017,97.975
246, 10:28:45,55.275963,201.814631,933.24858,97.975
247, 10:28:45,55.373146,202.3183,935.466619,97.975
248, 10:28:45,55.468158,202.757694,936.415483,97.975
249, 10:28:45,55.522885,203.059186,937.767045,97.975
250, 10:28:45,55.63443,203.611624,939.732244,97.975
251, 10:28:45,55.699692,203.907315,941.304688,97.975
252, 10:28:45,55.764007,204.352154,942.553267,97.975
253, 10:28:45,55.858191,204.718513,944.166193,97.975
254, 10:28:45,55.916706,205.032315,945.225142,97.975
255, 10:28:45,55.990925,205.431108,945.745739,97.975
256, 10:28:45,56.036971,205.753906,946.830256,97.975
257, 10:28:45,56.088897,206.030421,949.080256,97.975
258, 10:28:45,55.792614,204.879261,943.616477,97.975
259, 10:28:45,55.296007,202.45857,934.112216,97.975
260, 10:28:45,54.823548,200.228693,925.798295,97.975
261, 10:28:45,54.541746,198.776752,921.40767,97.975
262, 10:28:45,54.431147,198.420336,920.459517,97.975
263, 10:28:45,54.375355,198.214607,920.083097,97.975
264, 10:28:45,54.388928,198.305516,920.239347,97.975
265, 10:28:45,54.531842,198.885772,923.351562,97.975
266, 10:28:45,54.609178,199.261245,924.502131,97.975
267, 10:28:45,54.679175,199.601918,925.176847,97.975
268, 10:28:45,54.685093,199.756984,925.198153,97.975
269, 10:28:45,54.724116,199.908617,925.261364,97.975
270, 10:28:46,54.833452,200.296283,927.223722,97.975
271, 10:28:46,54.877367,200.630208,929.150568,97.975
272, 10:28:46,54.998067,201.085582,930.703835,97.975
273, 10:28:46,55.058752,201.471236,931.21946,97.975
274, 10:28:46,55.165404,202.013258,933.215909,97.975
275, 10:28:46,55.256116,202.481416,935.672585,97.975
276, 10:28:46,55.310211,202.826468,936.649148,97.975
277, 10:28:46,55.38589,203.252841,937.409091,97.975
278, 10:28:46,55.432015,203.511009,938.28196,97.975
279, 10:28:46,55.512192,203.977391,939.054688,97.975
280, 10:28:46,55.625473,204.429924,941.159091,97.975
281, 10:28:46,55.688802,204.828717,942.571733,97.975
282, 10:28:46,55.686711,205.004735,943.025568,97.975
283, 10:28:46,55.482718,204.111979,939.478693,97.975
284, 10:28:46,54.963187,201.683594,930.121449,97.975
285, 10:28:46,54.3808,199.170336,920.715199,97.975
286, 10:28:46,54.088581,197.615649,915.799006,97.975
287, 10:28:46,53.905974,196.870384,912.495028,97.975
288, 10:28:46,53.792298,196.432765,910.994318,97.975
289, 10:28:46,53.792219,196.405066,911.538352,97.975
290, 10:28:46,53.855153,196.679569,913.199574,97.975
291, 10:28:46,54.001973,197.305161,915.40483,97.975
292, 10:28:46,54.07706,197.696141,916.480824,97.975
293, 10:28:46,54.116832,197.939512,917.495028,97.975
294, 10:28:46,54.174992,198.19259,918.362926,97.975
295, 10:28:46,54.225971,198.450639,919.172585,97.975
296, 10:28:46,54.331282,198.976326,920.852273,97.975
297, 10:28:46,54.416667,199.339962,922.076705,97.975
298, 10:28:46,54.558909,199.909683,924.659801,97.975
299, 10:28:46,54.667377,200.35535,925.84517,97.975
300, 10:28:47,54.7369,200.752841,927.610795,97.975
301, 10:28:47,54.848643,201.422348,929.605114,97.975
302, 10:28:47,54.926057,201.710938,930.714489,97.975
303, 10:28:47,55.034762,202.198509,932.34446,97.975
304, 10:28:47,55.116872,202.696259,933.808239,97.975
305, 10:28:47,55.198864,203.09517,935.517045,97.975
306, 10:28:47,55.309422,203.725142,937.649148,97.975
307, 10:28:47,55.397846,204.153764,938.959517,97.975
308, 10:28:47,55.477115,204.516572,940.585227,97.975
309, 10:28:47,55.281329,203.785275,936.643466,97.975
310, 10:28:47,54.785945,201.606416,928.564631,97.975
311, 10:28:47,54.39386,199.409801,920.663352,97.975
312, 10:28:47,54.098524,197.959872,915.588778,97.975
313, 10:28:47,53.989978,197.421165,913.930398,97.975
314, 10:28:47,53.910866,197.064512,912.662642,97.975
315, 10:28:47,53.937224,197.095762,913.034801,97.975
316, 10:28:47,54.027344,197.48402,915.179688,97.975
317, 10:28:47,54.155461,198.16714,916.960227,97.975
318, 10:28:47,54.240807,198.585109,918.314631,97.975
319, 10:28:47,54.258523,198.736742,918.582386,97.975
320, 10:28:47,54.362689,199.105114,919.903409,97.975
321, 10:28:47,54.432923,199.47017,921.457386,97.975
322, 10:28:47,54.554609,200.02983,923.392045,97.975
323, 10:28:47,54.69693,200.542022,925.939631,97.975
324, 10:28:47,54.787169,201.024384,927.06392,97.975
325, 10:28:47,54.922151,201.654238,929.053267,97.975
326, 10:28:47,54.978022,202.055753,930.198153,97.975
327, 10:28:47,55.079624,202.629972,931.995739,97.975
328, 10:28:47,55.170297,203.121686,934.59375,97.975
329, 10:28:47,55.298453,203.66714,935.931818,97.975
330, 10:28:48,55.390704,204.107244,937.521307,97.95
331, 10:28:48,55.480153,204.60902,938.989347,97.95
332, 10:28:48,55.592961,205.214489,941.258523,97.95
333, 10:28:48,55.673887,205.626302,941.982244,97.95
334, 10:28:48,55.759825,206.122277,944.361506,97.95
335, 10:28:48,55.646346,205.717448,942.350142,97.95
336, 10:28:48,55.298335,203.996804,935.699574,97.95
337, 10:28:48,54.938881,202.017874,928.007812,97.95
338, 10:28:48,54.775371,200.899976,925.110085,97.95
339, 10:28:48,54.689433,200.468395,924.014915,97.95
340, 10:28:48,54.610993,200.194247,922.497869,97.95
341, 10:28:48,54.632655,200.380919,923.191761,97.95
342, 10:28:48,54.73398,200.850142,924.620739,97.95
343, 10:28:48,54.849629,201.36044,927.389915,97.95
344, 10:28:48,54.876026,201.599195,928.427557,97.95
345, 10:28:48,54.85973,201.685251,928.026278,97.95
346, 10:28:48,54.962516,201.954782,929.160511,97.95
347, 10:28:48,54.993371,202.218277,929.707386,97.95
348, 10:28:48,55.120857,202.774976,931.791903,97.95
349, 10:28:48,55.177872,203.145833,932.639205,97.95
350, 10:28:48,55.289575,203.664654,934.627131,97.95
351, 10:28:48,55.395478,204.265033,936.948153,97.95
352, 10:28:48,55.454664,204.642401,937.553267,97.95
353, 10:28:48,55.584478,205.228812,940.387074,97.95
354, 10:28:48,55.633286,205.59304,940.870739,97.95
355, 10:28:48,55.735401,206.108191,942.836648,97.95
356, 10:28:48,55.814631,206.568419,944.288352,97.95
357, 10:28:48,55.922467,207.111151,946.010653,97.95
358, 10:28:48,56.013258,207.596117,947.511364,97.95
359, 10:28:48,56.043324,207.902699,948.629261,97.95
360, 10:28:49,55.995896,207.801136,948.213068,97.95
361, 10:28:49,55.631037,206.18241,941.276278,97.95
362, 10:28:49,55.300742,204.219934,934.794034,97.95
363, 10:28:49,55.055122,202.886009,930.071733,97.95
364, 10:28:49,54.964212,202.35902,928.909801,97.95
365, 10:28:49,54.92152,202.010298,927.033381,97.95
366, 10:28:49,54.837121,201.829072,926.678977,97.95
367, 10:28:49,54.944366,202.236979,928.669034,97.95
368, 10:28:49,54.994358,202.574455,929.807528,97.95
369, 10:28:49,55.051728,202.934067,931.095881,97.95
370, 10:28:49,55.069957,203.054096,931.571733,97.95
371, 10:28:49,55.101365,203.274266,931.941051,97.95
372, 10:28:49,55.13881,203.621449,932.461648,97.95
373, 10:28:49,55.194681,203.857244,933.947443,97.95
374, 10:28:49,55.317748,204.382694,936.120028,97.95
375, 10:28:49,55.341698,204.65767,936.573864,97.95
376, 10:28:49,55.428543,205.111861,938.401278,97.95
377, 10:28:49,55.512232,205.603456,940.759943,97.95
378, 10:28:49,55.594934,206.05232,942.055398,97.95
379, 10:28:49,55.673848,206.446733,943.549716,97.95
380, 10:28:49,55.722498,206.757931,944.135653,97.95
381, 10:28:49,55.817748,207.288471,945.574574,97.95
382, 10:28:49,55.845881,207.529593,947.174716,97.95
383, 10:28:49,55.93458,208.081203,949.25142,97.95
384, 10:28:49,55.998422,208.413352,949.40625,97.95
385, 10:28:49,56.084912,208.890625,950.741477,97.95
386, 10:28:49,56.159525,209.307647,952.564631,97.95
387, 10:28:49,56.110874,209.254972,952.31392,97.95
388, 10:28:49,55.774818,207.839134,945.634233,97.95
389, 10:28:49,55.369989,205.536577,937.779119,97.95
390, 10:28:50,55.089883,203.802794,933.009943,97.975
391, 10:28:50,54.894847,202.689749,928.678267,97.975
392, 10:28:50,54.795218,202.176373,927.098011,97.975
393, 10:28:50,54.689078,201.724432,925.684659,97.975
394, 10:28:50,54.712397,201.781132,925.726562,97.975
395, 10:28:50,54.752604,202.091146,927.660511,97.975
396, 10:28:50,54.771504,202.363281,928.512074,97.975
397, 10:28:50,54.819444,202.539299,929.056818,97.975
398, 10:28:50,54.798966,202.548887,929.114347,97.975
399, 10:28:50,54.835859,202.714962,929.835227,97.975
400, 10:28:50,54.89824,202.990649,930.855824,97.975
401, 10:28:50,54.943063,203.350971,932.304688,97.975
402, 10:28:50,55.01598,203.716974,932.824574,97.975
403, 10:28:50,55.071181,204.084754,933.96875,97.975
404, 10:28:50,55.176768,204.550663,936.488636,97.975
405, 10:28:50,55.24779,204.913352,937.301136,97.975
406, 10:28:50,55.285393,205.315459,938.958097,97.975
407, 10:28:50,55.383404,205.731179,940.370028,97.975
408, 10:28:50,55.471788,206.142637,942.088778,97.975
409, 10:28:50,55.561119,206.574929,943.415483,97.975
410, 10:28:50,55.576665,206.91134,944.269176,97.975
411, 10:28:50,55.66935,207.384943,945.542614,97.975
412, 10:28:50,55.741083,207.745502,947.237216,97.975
413, 10:28:50,55.81617,208.155421,948.84446,97.975
414, 10:28:50,55.935014,208.705611,950.054688,97.975
415, 10:28:50,55.972301,209.040483,950.882102,97.975
416, 10:28:50,55.855469,208.679096,949.37571,97.975
417, 10:28:50,55.409288,206.680516,941.128551,97.975
418, 10:28:50,55.043008,204.601089,934.149148,97.975
419, 10:28:50,54.806858,203.021899,929.509233,97.975
420, 10:28:51,54.672664,202.137311,926.761364,97.975
421, 10:28:51,54.608823,201.819839,925.919034,97.975
422, 10:28:51,54.533657,201.480705,924.685369,97.975
423, 10:28:51,54.53346,201.580492,925.173295,97.975
424, 10:28:51,54.60176,201.904238,926.12429,97.975
425, 10:28:51,54.682765,202.294034,927.792614,97.975
426, 10:28:51,54.682331,202.435724,928.429688,97.975
427, 10:28:51,54.705926,202.520715,928.175426,97.975
428, 10:28:51,54.766098,202.77036,930.224432,97.975
429, 10:28:51,54.786182,202.968395,930.784801,97.975
430, 10:28:51,54.901712,203.466974,932.327415,97.975
431, 10:28:51,54.992977,203.853456,933.384943,97.975
432, 10:28:51,55.051491,204.272372,935.284801,97.975
433, 10:28:51,55.146425,204.65187,936.558949,97.975
434, 10:28:51,55.193221,205.105232,937.662642,97.975
435, 10:28:51,55.306976,205.59375,939.829545,97.975
436, 10:28:51,55.362887,205.992069,941.205256,97.975
437, 10:28:51,55.45857,206.41785,942.96733,97.975
438, 10:28:51,55.52395,206.803385,943.860085,97.975
439, 10:28:51,55.595486,207.163352,945.548295,97.975
440, 10:28:51,55.692156,207.653172,947.458807,97.975
441, 10:28:51,55.723722,207.983665,948.143466,97.975
442, 10:28:51,55.857402,208.523911,950.265625,97.975
443, 10:28:51,55.901081,208.823035,951.347301,97.975
444, 10:28:51,55.950955,209.158262,951.921165,97.975
445, 10:28:51,55.71733,208.3125,948.258523,97.975
446, 10:28:51,55.326152,206.235559,941.200284,97.975
447, 10:28:51,54.9884,204.254972,934.066761,97.975
448, 10:28:51,54.78776,202.961766,930.668324,97.975
449, 10:28:51,54.709714,202.556226,929.013494,97.975
450, 10:28:52,54.625355,202.205137,928.452415,97.975
451, 10:28:52,54.61845,202.181581,927.705966,97.975
452, 10:28:52,54.724984,202.543797,930.200284,97.975
453, 10:28:52,54.76089,202.793561,930.644886,97.975
454, 10:28:52,54.773911,202.965672,931.205966,97.975
455, 10:28:52,54.788392,202.988281,931.34446,97.975
456, 10:28:52,54.808515,203.138139,932.257812,97.975
457, 10:28:52,54.865728,203.329664,933.364347,97.975
458, 10:28:52,54.922033,203.58428,933.764205,97.975
459, 10:28:52,55.030816,204.123224,935.671165,97.975
460, 10:28:52,55.079033,204.426491,936.394176,97.975
461, 10:28:52,55.19839,204.955019,938.5625,97.975
462, 10:28:52,55.272372,205.257457,939.743608,97.975
463, 10:28:52,55.367661,205.722775,941.223011,97.975
464, 10:28:52,55.444839,206.165956,942.830966,97.975
465, 10:28:52,55.432726,206.560014,943.388494,97.975
466, 10:28:52,55.541509,206.915246,945.159091,97.975
467, 10:28:52,55.597814,207.243253,946.198153,97.975
468, 10:28:52,55.699455,207.671757,947.831676,97.975
469, 10:28:52,55.765112,208.064276,949.445312,97.975
470, 10:28:52,55.878472,208.547348,950.792614,97.975
471, 10:28:52,55.920533,208.87429,952.81392,97.975
472, 10:28:52,55.735085,208.236506,949.387784,97.975
473, 10:28:52,55.364268,206.408617,942.525568,97.975
474, 10:28:52,54.915286,203.918679,933.054688,97.975
475, 10:28:52,54.64319,202.289891,929.014915,97.975
476, 10:28:52,54.481297,201.434422,926.22017,97.975
477, 10:28:52,54.403172,200.970407,924.410511,97.975
478, 10:28:52,54.392479,200.866832,924.323153,97.975
479, 10:28:52,54.398398,200.888376,924.475142,97.975
480, 10:28:53,54.506708,201.316998,926.370739,97.975
481, 10:28:53,54.538668,201.489583,927.017045,97.975
482, 10:28:53,54.563684,201.7384,927.455966,97.975
483, 10:28:53,54.596078,201.79723,927.564631,97.975
484, 10:28:53,54.653488,201.951941,928.580966,97.975
485, 10:28:53,54.754419,202.40483,930.565341,97.975
486, 10:28:53,54.803859,202.707978,931.668324,97.975
487, 10:28:53,54.927004,203.197206,933.930398,97.975
488, 10:28:53,55.006274,203.635298,935.135653,97.975
489, 10:28:53,55.045967,204.092448,935.855824,97.975
490, 10:28:53,55.163194,204.52983,938.002841,97.975
491, 10:28:53,55.252762,205.012074,939.399148,97.975
492, 10:28:53,55.366319,205.473485,941.511364,97.975
493, 10:28:53,55.418403,205.713068,942.252841,97.975
494, 10:28:53,55.517992,206.191761,943.744318,97.975
495, 10:28:53,55.584083,206.6192,945.024858,97.975
496, 10:28:53,55.663628,207.1192,946.794744,97.975
497, 10:28:53,55.772057,207.54723,948.004972,97.975
498, 10:28:53,55.845249,207.990767,949.808239,97.975
499, 10:28:53,55.919152,208.400923,950.766335,97.975
500, 10:28:53,55.915365,208.510772,951.479403,97.975
501, 10:28:53,55.614347,207.216619,945.740057,97.975
502, 10:28:53,55.103101,204.624645,936.460938,97.975
503, 10:28:53,54.657789,202.101681,927.769176,97.975
504, 10:28:53,54.441564,200.544863,923.513494,97.975
505, 10:28:53,54.293916,199.694247,920.699574,97.975
506, 10:28:53,54.209083,199.29581,920.439631,97.975
507, 10:28:53,54.169113,199.126184,919.43608,97.975
508, 10:28:53,54.24708,199.474669,920.930398,97.975
509, 10:28:53,54.345052,199.914418,922.415483,97.975
510, 10:28:54,54.351168,200.076705,922.667614,97.975
511, 10:28:54,54.42515,200.328007,924.064631,97.975
512, 10:28:54,54.450324,200.45419,924.549006,97.975
513, 10:28:54,54.522135,200.790365,925.943892,97.975
514, 10:28:54,54.634351,201.190459,927.676847,97.975
515, 10:28:54,54.721433,201.660985,929.636364,97.975
516, 10:28:54,54.850379,202.197443,931.900568,97.975
517, 10:28:54,54.944563,202.682647,933.004972,97.975
518, 10:28:54,55.062145,203.250355,934.90554,97.975
519, 10:28:54,55.144255,203.707386,936.255682,97.975
520, 10:28:54,55.277857,204.28054,937.68608,97.975
521, 10:28:54,55.397925,204.764323,940.290483,97.975
522, 10:28:54,55.466422,205.115175,940.983665,97.975
523, 10:28:54,55.571181,205.619318,942.997159,97.975
524, 10:28:54,55.62788,206.127486,944.276278,97.975
525, 10:28:54,55.767124,206.612926,946.947443,97.975
526, 10:28:54,55.865175,207.176491,948.902699,97.975
527, 10:28:54,55.906013,207.627131,949.18892,97.975
528, 10:28:54,56.021544,208.096828,951.680398,97.975
529, 10:28:54,55.942985,207.970052,950.84304,97.975
530, 10:28:54,55.556976,206.31108,943.551136,97.975
531, 10:28:54,55.065578,203.674479,934.836648,97.975
532, 10:28:54,54.664891,201.388139,927.573153,97.975
533, 10:28:54,54.489149,200.21508,923.216619,97.975
534, 10:28:54,54.345289,199.513139,920.402699,97.975
535, 10:28:54,54.266967,199.330256,920.509943,97.975
536, 10:28:54,54.31613,199.496686,922.346591,97.975
537, 10:28:54,54.440341,200.017992,923.875,97.975
538, 10:28:54,54.555279,200.498698,925.006392,97.975
539, 10:28:54,54.564907,200.658736,925.517756,97.975
540, 10:28:55,54.605193,200.893229,926.995739,98.0
541, 10:28:55,54.651436,201.051373,927.725852,98.0
542, 10:28:55,54.76164,201.466738,929.351562,98.0
543, 10:28:55,54.825915,201.795455,930.053977,98.0
544, 10:28:55,54.918205,202.354522,932.067472,98.0
545, 10:28:55,55.048414,202.932173,934.558949,98.0
546, 10:28:55,55.127801,203.276397,935.24929,98.0
547, 10:28:55,55.234178,203.813329,937.970881,98.0
548, 10:28:55,55.315459,204.21437,939.12429,98.0
549, 10:28:55,55.400687,204.733783,940.652699,98.0
550, 10:28:55,55.516493,205.321733,942.992898,98.0
551, 10:28:55,55.570194,205.611151,943.229403,98.0
552, 10:28:55,55.664497,206.138849,945.56321,98.0
553, 10:28:55,55.744042,206.496804,946.995028,98.0
554, 10:28:55,55.847775,207.09446,947.808239,98.0
555, 10:28:55,55.954624,207.508759,950.146307,98.0
556, 10:28:55,55.922704,207.65258,949.93821,98.0
557, 10:28:55,55.644571,206.53125,945.053977,98.0
558, 10:28:55,55.070155,203.981297,935.901989,98.0
559, 10:28:55,54.724669,201.881392,929.052557,98.0
560, 10:28:55,54.501144,200.550308,925.074574,98.0
561, 10:28:55,54.42444,200.217921,923.892756,98.0
562, 10:28:55,54.413628,200.120147,924.306108,98.0
563, 10:28:55,54.455729,200.242661,924.475852,98.0
564, 10:28:55,54.624842,200.872633,927.474432,98.0
565, 10:28:55,54.657434,201.236979,928.737216,98.0
566, 10:28:55,54.718868,201.512666,929.252131,98.0
567, 10:28:55,54.73761,201.651278,930.350852,98.0
568, 10:28:55,54.800229,201.871804,931.060369,98.0
569, 10:28:55,54.879932,202.27616,932.404119,98.0
570, 10:28:56,54.947522,202.584517,933.171875,98.0
571, 10:28:56,55.060211,203.13518,935.132102,98.0
572, 10:28:56,55.129893,203.575284,937.042614,98.0
573, 10:28:56,55.219855,204.013258,938.079545,98.0
574, 10:28:56,55.342408,204.59304,940.481534,98.0
575, 10:28:56,55.438999,205.003551,941.927557,98.0
576, 10:28:56,55.536932,205.481534,943.818182,98.0
577, 10:28:56,55.5872,205.794271,944.617898,98.0
578, 10:28:56,55.712397,206.377723,947.090199,98.0
579, 10:28:56,55.782789,206.736151,947.948153,98.0
580, 10:28:56,55.848406,207.151752,949.711648,98.0
581, 10:28:56,55.95352,207.691525,951.203125,98.0
582, 10:28:56,55.926728,207.653291,951.022017,98.0
583, 10:28:56,55.551965,206.356179,944.307528,98.0
584, 10:28:56,55.017164,203.67081,935.323153,98.0
585, 10:28:56,54.552202,201.262192,927.254972,98.0
586, 10:28:56,54.302833,199.883404,921.888494,98.0
587, 10:28:56,54.160196,199.152936,919.84375,98.0
588, 10:28:56,54.144847,198.956795,919.689631,98.0
589, 10:28:56,54.099077,198.897609,920.152699,98.0
590, 10:28:56,54.243292,199.431581,922.208807,98.0
591, 10:28:56,54.324416,199.869081,923.697443,98.0
592, 10:28:56,54.381037,200.238281,924.151278,98.0
593, 10:28:56,54.449416,200.419271,925.68608,98.0
594, 10:28:56,54.464212,200.57919,926.40696,98.0
595, 10:28:56,54.568616,201.052912,927.945312,98.0
596, 10:28:56,54.626578,201.319129,928.980114,98.0
597, 10:28:56,54.776634,201.928859,931.200994,98.0
598, 10:28:56,54.857284,202.310488,932.419744,98.0
599, 10:28:56,54.969381,202.884943,934.465909,98.0
600, 10:28:57,55.064591,203.399266,935.872869,98.025
601, 10:28:57,55.147096,203.830492,937.909091,98.025
602, 10:28:57,55.269413,204.300663,939.090909,98.025
603, 10:28:57,55.331282,204.68892,941.125,98.025
604, 10:28:57,55.462003,205.204664,942.722301,98.025
605, 10:28:57,55.539339,205.594342,943.810369,98.025
606, 10:28:57,55.60322,206.013258,945.082386,98.025
607, 10:28:57,55.727825,206.619081,947.370739,98.025
608, 10:28:57,55.762192,206.950876,948.290483,98.025
609, 10:28:57,55.714291,206.830374,947.141335,98.025
610, 10:28:57,55.28054,204.89465,939.856534,98.025
611, 10:28:57,54.774227,202.290956,929.893466,98.025
612, 10:28:57,54.342764,200.12062,922.786222,98.025
613, 10:28:57,54.185764,199.059659,919.866477,98.025
614, 10:28:57,54.101128,198.659446,918.59304,98.025
615, 10:28:57,54.036458,198.345644,916.724432,98.025
616, 10:28:57,54.067629,198.542377,917.59517,98.025
617, 10:28:57,54.193971,198.986742,920.411932,98.025
618, 10:28:57,54.338936,199.536222,922.393466,98.025
619, 10:28:57,54.3997,199.860559,923.458807,98.025
620, 10:28:57,54.380011,200.117306,923.289062,98.025
621, 10:28:57,54.50367,200.490649,925.415483,98.025
622, 10:28:57,54.58211,200.858546,927.009233,98.025
623, 10:28:57,54.719105,201.34955,928.327415,98.025
624, 10:28:57,54.808988,201.881984,930.453835,98.025
625, 10:28:57,54.950324,202.502012,933.162642,98.025
626, 10:28:57,55.038076,202.99491,934.128551,98.025
627, 10:28:57,55.134075,203.35393,935.77983,98.025
628, 10:28:57,55.274148,204.047348,938.380682,98.025
629, 10:28:57,55.318853,204.433357,939.526278,98.025
630, 10:28:58,55.435172,204.968395,942.18821,98.025
631, 10:28:58,55.523674,205.41572,942.474432,98.025
632, 10:28:58,55.639639,206.039181,945.416903,98.025
633, 10:28:58,55.76744,206.57268,946.600852,98.025
634, 10:28:58,55.85105,207.026634,948.841619,98.025
635, 10:28:58,55.992937,207.808357,950.583097,98.025
636, 10:28:58,55.991911,207.967685,951.141335,98.025
637, 10:28:58,55.755287,207.004025,947.026989,98.025
638, 10:28:58,55.281645,204.818892,938.981534,98.025
639, 10:28:58,54.852746,202.580492,930.792614,98.025
640, 10:28:58,54.639599,201.396544,927.100852,98.025
641, 10:28:58,54.528804,200.796165,924.955966,98.025
642, 10:28:58,54.524542,200.662169,925.56108,98.025
643, 10:28:58,54.515073,200.717566,925.294034,98.025
644, 10:28:58,54.628157,201.240057,927.735795,98.025
645, 10:28:58,54.72384,201.701823,928.941051,98.025
646, 10:28:58,54.743411,202.01527,930.512074,98.025
647, 10:28:58,54.823469,202.329782,931.396307,98.025
648, 10:28:58,54.840238,202.470999,931.737926,98.025
649, 10:28:58,54.957347,202.947325,933.010653,98.025
650, 10:28:58,55.05086,203.351918,935.424006,98.025
651, 10:28:58,55.130761,203.922112,936.177557,98.025
652, 10:28:58,55.266927,204.424361,938.037642,98.025
653, 10:28:58,55.313052,204.774858,939.705966,98.025
654, 10:28:58,55.454585,205.470289,941.81321,98.025
655, 10:28:58,55.534091,205.888731,943.866477,98.025
656, 10:28:58,55.631826,206.395952,945.642756,98.025
657, 10:28:58,55.742503,206.828835,947.828125,98.025
658, 10:28:58,55.816209,207.309896,948.933239,98.025
659, 10:28:58,55.90479,207.791075,950.513494,98.025
660, 10:28:59,55.962516,208.218513,951.950284,98.0
661, 10:28:59,56.11699,208.84008,954.122869,98.0
662, 10:28:59,56.173059,209.22893,954.944602,98.0
663, 10:28:59,56.176018,209.46366,955.310369,98.0
664, 10:28:59,55.940538,208.626539,951.568892,98.0
665, 10:28:59,55.475576,206.437145,942.847301,98.0
666, 10:28:59,55.128472,204.585701,937.0625,98.0
667, 10:28:59,54.905461,203.431345,933.196023,98.0
668, 10:28:59,54.860164,203.165246,932.269886,98.0
669, 10:28:59,54.831755,203.028409,932.693182,98.0
670, 10:28:59,54.881708,203.173059,932.884943,98.0
671, 10:28:59,54.996291,203.672112,935.433239,98.0
672, 10:28:59,55.064236,204.099905,936.653409,98.0
673, 10:28:59,55.103733,204.354759,937.710938,98.0
674, 10:28:59,55.144689,204.456321,937.644176,98.0
675, 10:28:59,55.19405,204.692945,938.919034,98.0
676, 10:28:59,55.249803,205.021188,939.71804,98.0
677, 10:28:59,55.365688,205.422822,941.599432,98.0
678, 10:28:59,55.47309,205.935843,943.87642,98.0
679, 10:28:59,55.489781,206.222656,944.838778,98.0
680, 10:28:59,55.58866,206.76456,945.797585,98.0
681, 10:28:59,55.702296,207.29581,948.371449,98.0
682, 10:28:59,55.778172,207.754498,948.961648,98.0
683, 10:28:59,55.913234,208.216974,952.102983,98.0
684, 10:28:59,55.974511,208.628551,953.149148,98.0
685, 10:28:59,56.077612,209.103575,954.192472,98.0
686, 10:28:59,56.150371,209.521662,955.700994,98.0
687, 10:28:59,56.256826,210.011009,957.489347,98.0
688, 10:28:59,56.287247,210.333333,958.21875,98.0
689, 10:28:59,56.173374,209.852983,956.22017,98.0
690, 10:29:00,55.726484,208.031723,949.028409,98.025
691, 10:29:00,55.256432,205.554332,940.178267,98.025
692, 10:29:00,54.956439,203.973011,935.056818,98.025
693, 10:29:00,54.795257,203.032552,931.862926,98.025
694, 10:29:00,54.735361,202.718395,931.299006,98.025
695, 10:29:00,54.733823,202.587358,931.776989,98.025
696, 10:29:00,54.773477,202.709162,932.200994,98.025
697, 10:29:00,54.87646,203.170099,934.318892,98.025
698, 10:29:00,54.906487,203.381866,934.115057,98.025
699, 10:29:00,54.955335,203.58286,934.525568,98.025
700, 10:29:00,54.957623,203.692472,934.941761,98.025
701, 10:29:00,55.038944,203.989465,936.206676,98.025
702, 10:29:00,55.097341,204.30812,937.746449,98.025
703, 10:29:00,55.237729,204.783262,939.864347,98.025
704, 10:29:00,55.324061,205.300308,940.68821,98.025
705, 10:29:00,55.400608,205.635535,941.929688,98.025
706, 10:29:00,55.498856,206.155185,944.325994,98.025
707, 10:29:00,55.560133,206.521307,945.346591,98.025
708, 10:29:00,55.670612,207.059186,947.3125,98.025
709, 10:29:00,55.729522,207.427675,948.557528,98.025
710, 10:29:00,55.82706,207.826823,949.881392,98.025
711, 10:29:00,55.9375,208.233902,951.678977,98.025
712, 10:29:00,56.0058,208.599313,952.96804,98.025
713, 10:29:00,56.057449,209.165246,953.542614,98.025
714, 10:29:00,56.145163,209.468632,955.414062,98.025
715, 10:29:00,56.200245,209.834635,955.87429,98.025
716, 10:29:00,55.975063,208.987689,952.789773,98.025
717, 10:29:00,55.438723,206.540601,943.769176,98.025
718, 10:29:00,54.922664,203.814867,934.0625,98.025
719, 10:29:00,54.586016,201.931345,927.653409,98.025
720, 10:29:01,54.418837,200.993253,924.885653,98.025
721, 10:29:01,54.315775,200.289181,923.348722,98.025
722, 10:29:01,54.300426,200.068419,922.578125,98.025
723, 10:29:01,54.365372,200.31108,923.576705,98.025
724, 10:29:01,54.453756,200.703598,925.150568,98.025
725, 10:29:01,54.540878,201.032197,927.076705,98.025
726, 10:29:01,54.564591,201.155421,927.012074,98.025
727, 10:29:01,54.609612,201.39465,928.27983,98.025
728, 10:29:01,54.661774,201.611742,928.292614,98.025
729, 10:29:01,54.791075,202.05741,931.034801,98.025
730, 10:29:01,54.917377,202.573153,932.509943,98.025
731, 10:29:01,54.979956,202.894413,933.786932,98.025
732, 10:29:01,55.129498,203.552794,936.21733,98.025
733, 10:29:01,55.250395,204.087831,938.183239,98.025
734, 10:29:01,55.334162,204.472656,939.270597,98.025
735, 10:29:01,55.453086,205.014086,940.732244,98.025
736, 10:29:01,55.541706,205.412524,942.040483,98.025
737, 10:29:01,55.632457,205.911103,944.25071,98.025
738, 10:29:01,55.742227,206.331321,945.607244,98.025
739, 10:29:01,55.845526,206.854285,948.097301,98.025
740, 10:29:01,55.957741,207.420573,949.733665,98.025
741, 10:29:01,56.043403,207.859848,951.198864,98.025
742, 10:29:01,56.152896,208.372514,952.675426,98.025
743, 10:29:01,56.053267,208.060843,950.890625,98.025
744, 10:29:01,55.587555,206.022135,943.235085,98.025
745, 10:29:01,55.126697,203.497514,933.962358,98.025
746, 10:29:01,54.827849,201.658262,927.878551,98.025
747, 10:29:01,54.692708,200.967803,926.147727,98.025
748, 10:29:01,54.630129,200.499763,924.632102,98.025
749, 10:29:01,54.628393,200.479877,924.387784,98.025
750, 10:29:02,54.729048,200.759588,926.046165,98.025
751, 10:29:02,54.840791,201.271425,928.608665,98.025
752, 10:29:02,54.93099,201.785866,930.036222,98.025
753, 10:29:02,54.995581,201.965436,930.073864,98.025
754, 10:29:02,55.031645,202.174479,930.930398,98.025
755, 10:29:02,55.08357,202.403646,931.475852,98.025
756, 10:29:02,55.204388,202.912405,934.213068,98.025
757, 10:29:02,55.311829,203.437382,935.766335,98.025
758, 10:29:02,55.424164,203.907907,937.174716,98.025
759, 10:29:02,55.540878,204.493371,939.775568,98.025
760, 10:29:02,55.631708,204.951468,940.794034,98.025
761, 10:29:02,55.757734,205.523201,942.96875,98.025
762, 10:29:02,55.843829,205.986032,944.254261,98.025
763, 10:29:02,55.936277,206.530895,947.083097,98.025
764, 10:29:02,56.042574,207.068063,948.556108,98.025
765, 10:29:02,56.11486,207.455848,950.039062,98.025
766, 10:29:02,56.245541,208.067116,951.81179,98.025
767, 10:29:02,56.322759,208.496686,953.667614,98.025
768, 10:29:02,56.41209,209.089489,955.454545,98.025
769, 10:29:02,56.308357,208.756037,953.286222,98.025
770, 10:29:02,55.962674,207.10535,946.961648,98.025
771, 10:29:02,55.578914,205.149148,940.028409,98.025
772, 10:29:02,55.322167,203.661103,934.918324,98.025
773, 10:29:02,55.236308,203.24349,933.549006,98.025
774, 10:29:02,55.185606,203.116004,933.244318,98.025
775, 10:29:02,55.182449,203.229167,933.696023,98.025
776, 10:29:02,55.285709,203.655421,935.208097,98.025
777, 10:29:02,55.426491,204.205611,937.526278,98.025
778, 10:29:02,55.498422,204.658617,939.258523,98.025
779, 10:29:02,55.519255,204.800663,939.352273,98.025
780, 10:29:03,55.577336,205.079072,940.491477,98.025
781, 10:29:03,55.654869,205.448035,941.901278,98.025
782, 10:29:03,55.72964,205.802083,943.0,98.025
783, 10:29:03,55.843119,206.422822,945.238636,98.025
784, 10:29:03,55.933712,206.878788,946.948864,98.025
785, 10:29:03,56.035511,207.450284,949.321023,98.025
786, 10:29:03,56.099511,207.955256,950.396307,98.025
787, 10:29:03,56.173966,208.333925,952.276278,98.025
788, 10:29:03,56.291824,208.927557,953.173295,98.025
789, 10:29:03,56.338976,209.253196,954.357244,98.025
790, 10:29:03,56.439867,209.806345,956.758523,98.025
791, 10:29:03,56.522648,210.313684,958.450284,98.025
792, 10:29:03,56.621922,210.745028,959.862216,98.025
793, 10:29:03,56.738952,211.380208,962.099432,98.025
794, 10:29:03,56.700679,211.479403,961.910511,98.025
795, 10:29:03,56.448469,210.536695,956.867898,98.025
796, 10:29:03,55.98185,208.367424,948.880682,98.025
797, 10:29:03,55.610046,206.426255,943.327415,98.025
798, 10:29:03,55.426018,205.442827,940.006392,98.025
799, 10:29:03,55.309028,204.783617,937.704545,98.025
800, 10:29:03,55.244042,204.580611,937.350142,98.025
801, 10:29:03,55.219934,204.559422,937.365057,98.025
802, 10:29:03,55.330137,204.92223,938.894176,98.025
803, 10:29:03,55.390822,205.330137,940.216619,98.025
804, 10:29:03,55.453401,205.686435,941.385653,98.025
805, 10:29:03,55.458649,205.778409,942.042614,98.025
806, 10:29:03,55.461924,205.953007,941.695312,98.025
807, 10:29:03,55.543718,206.339962,943.556818,98.025
808, 10:29:03,55.603969,206.630563,944.388494,98.025
809, 10:29:03,55.75,207.181345,946.971591,98.025
810, 10:29:04,55.808002,207.516809,948.390625,98.025
811, 10:29:04,55.852036,207.930161,949.612216,98.025
812, 10:29:04,55.958215,208.448982,951.077415,98.025
813, 10:29:04,56.012508,208.789418,952.083097,98.025
814, 10:29:04,56.082347,209.176018,952.675426,98.025
815, 10:29:04,56.121804,209.551491,954.073153,98.025
816, 10:29:04,56.229127,210.034446,956.317472,98.025
817, 10:29:04,56.25217,210.424124,957.203835,98.025
818, 10:29:04,56.368529,210.960701,958.931818,98.025
819, 10:29:04,56.447601,211.359848,960.207386,98.025
820, 10:29:04,56.499763,211.816525,961.433239,98.025
821, 10:29:04,56.539575,212.147135,962.825994,98.025
822, 10:29:04,56.287958,211.209991,958.257102,98.025
823, 10:29:04,55.906881,209.104167,951.340909,98.025
824, 10:29:04,55.410827,206.695076,942.721591,98.025
825, 10:29:04,55.115885,205.108546,936.662642,98.025
826, 10:29:04,55.002525,204.237689,934.991477,98.025
827, 10:29:04,54.89895,203.694484,932.774858,98.025
828, 10:29:04,54.892164,203.587476,933.036222,98.025
829, 10:29:04,54.916824,203.640625,933.383523,98.025
830, 10:29:04,55.0131,204.102746,935.235795,98.025
831, 10:29:04,55.03997,204.225024,935.773438,98.025
832, 10:29:04,55.057607,204.397254,936.042614,98.025
833, 10:29:04,55.079033,204.464844,935.570312,98.025
834, 10:29:04,55.115136,204.629498,936.805398,98.025
835, 10:29:04,55.233862,205.000829,938.303267,98.025
836, 10:29:04,55.267282,205.265862,939.225852,98.025
837, 10:29:04,55.359454,205.8241,940.995739,98.025
838, 10:29:04,55.455848,206.222183,942.483665,98.025
839, 10:29:04,55.533894,206.67081,943.669744,98.025
840, 10:29:05,55.638218,207.170336,945.908381,98.025
841, 10:29:05,55.724235,207.586056,947.683949,98.025
842, 10:29:05,55.829033,207.997514,949.240767,98.025
843, 10:29:05,55.885062,208.335109,950.672585,98.025
844, 10:29:05,56.008799,208.91276,952.644176,98.025
845, 10:29:05,56.027541,209.252131,953.691761,98.025
846, 10:29:05,56.100655,209.618726,954.553267,98.025
847, 10:29:05,56.208176,210.143466,955.903409,98.025
848, 10:29:05,56.261048,210.562027,957.636364,98.025
849, 10:29:05,56.335109,211.02758,958.742188,98.025
850, 10:29:05,56.304648,211.071615,959.00071,98.025
851, 10:29:05,55.984533,209.71875,953.389205,98.025
852, 10:29:05,55.515862,207.293324,945.262784,98.025
853, 10:29:05,55.09446,205.007339,936.822443,98.025
854, 10:29:05,54.888889,203.824337,932.931818,98.025
855, 10:29:05,54.745936,203.036103,930.287642,98.025
856, 10:29:05,54.702967,202.750473,930.309659,98.025
857, 10:29:05,54.685843,202.616714,930.09233,98.025
858, 10:29:05,54.758247,202.861387,930.699574,98.025
859, 10:29:05,54.850379,203.277462,932.46875,98.025
860, 10:29:05,54.845052,203.358073,933.023438,98.025
861, 10:29:05,54.873619,203.487334,932.716619,98.025
862, 10:29:05,54.897964,203.530066,933.021307,98.025
863, 10:29:05,54.974235,203.806226,934.752131,98.025
864, 10:29:05,55.018505,204.083452,935.560369,98.025
865, 10:29:05,55.134509,204.570194,937.847301,98.025
866, 10:29:05,55.225379,205.062027,939.338068,98.025
867, 10:29:05,55.272333,205.340199,940.069602,98.025
868, 10:29:05,55.354088,205.887547,941.004261,98.025
869, 10:29:05,55.417653,206.189039,942.878551,98.025
870, 10:29:06,55.530461,206.645833,945.036932,98.025
871, 10:29:06,55.612689,207.080492,946.477273,98.025
872, 10:29:06,55.642085,207.376539,946.972301,98.025
873, 10:29:06,55.714449,207.763613,948.135653,98.025
874, 10:29:06,55.828007,208.211293,950.40696,98.025
875, 10:29:06,55.917614,208.663826,951.707386,98.025
876, 10:29:06,55.973445,208.999882,952.470881,98.025
877, 10:29:06,56.043955,209.410748,953.40483,98.025
878, 10:29:06,55.906092,208.954545,952.181818,98.025
879, 10:29:06,55.45565,206.843277,943.883523,98.025
880, 10:29:06,55.004419,204.624053,935.431818,98.025
881, 10:29:06,54.708176,203.005682,930.599432,98.025
882, 10:29:06,54.586016,202.302557,928.340909,98.025
883, 10:29:06,54.521978,202.007694,927.628551,98.025
884, 10:29:06,54.519255,202.026989,928.213068,98.025
885, 10:29:06,54.60247,202.323982,929.966619,98.025
886, 10:29:06,54.656132,202.644058,930.770597,98.025
887, 10:29:06,54.715949,202.917732,931.685369,98.025
888, 10:29:06,54.722025,203.04723,931.888494,98.025
889, 10:29:06,54.767756,203.204309,932.839489,98.025
890, 10:29:06,54.849787,203.491596,933.384233,98.025
891, 10:29:06,54.909367,203.807647,934.783381,98.025
892, 10:29:06,55.00943,204.320431,936.857244,98.025
893, 10:29:06,55.159959,204.852509,938.919034,98.025
894, 10:29:06,55.170652,205.204664,939.370028,98.025
895, 10:29:06,55.291351,205.725379,942.0,98.025
896, 10:29:06,55.375473,206.153883,943.144886,98.025
897, 10:29:06,55.459793,206.565459,944.645597,98.025
898, 10:29:06,55.532394,206.962713,946.551847,98.025
899, 10:29:06,55.577454,207.431226,946.848722,98.025
900, 10:29:07,55.673927,207.836648,948.801136,98.025
901, 10:29:07,55.714528,208.095289,949.708097,98.025
902, 10:29:07,55.856652,208.606889,952.181108,98.025
903, 10:29:07,55.896938,208.972538,952.568182,98.025
904, 10:29:07,56.006471,209.429924,954.90625,98.025
905, 10:29:07,55.858902,208.955019,951.772727,98.025
906, 10:29:07,55.36916,206.828125,944.497159,98.025
907, 10:29:07,54.810922,204.130682,933.633523,98.025
908, 10:29:07,54.415443,202.063565,927.208097,98.025
909, 10:29:07,54.234375,201.082386,923.914773,98.025
910, 10:29:07,54.09229,200.365885,921.678267,98.025
911, 10:29:07,54.050347,200.16572,920.838068,98.025
912, 10:29:07,54.100339,200.235677,922.220881,98.025
913, 10:29:07,54.183278,200.645478,924.296165,98.025
914, 10:29:07,54.280777,201.054451,925.258523,98.025
915, 10:29:07,54.278093,201.170928,925.548295,98.025
916, 10:29:07,54.319602,201.273201,925.741477,98.025
917, 10:29:07,54.397925,201.650687,927.199574,98.025
918, 10:29:07,54.446496,201.918561,927.994318,98.025
919, 10:29:07,54.573351,202.465791,929.931108,98.025
920, 10:29:07,54.671914,202.833925,932.051847,98.025
921, 10:29:07,54.749605,203.242188,933.018466,98.025
922, 10:29:07,54.879419,203.75947,934.818182,98.025
923, 10:29:07,55.014599,204.323153,936.384943,98.025
924, 10:29:07,55.078875,204.789654,938.308949,98.025
925, 10:29:07,55.163707,205.1933,939.943892,98.025
926, 10:29:07,55.270281,205.691525,941.049716,98.025
927, 10:29:07,55.341304,206.08215,943.137784,98.025
928, 10:29:07,55.471867,206.596946,945.206676,98.025
929, 10:29:07,55.521267,206.962476,945.74929,98.025
930, 10:29:08,55.59884,207.479285,947.276278,98.025
931, 10:29:08,55.744831,207.993016,950.108665,98.025
932, 10:29:08,55.795612,208.235322,950.465909,98.025
933, 10:29:08,55.794468,208.35973,950.354403,98.025
934, 10:29:08,55.43099,206.773556,944.067472,98.025
935, 10:29:08,54.911182,204.232126,934.506392,98.025
936, 10:29:08,54.47242,202.011009,926.114347,98.025
937, 10:29:08,54.298848,200.742188,922.799716,98.025
938, 10:29:08,54.202573,200.225616,921.512784,98.025
939, 10:29:08,54.158341,199.936671,920.691051,98.025
940, 10:29:08,54.222341,200.048177,921.459517,98.025
941, 10:29:08,54.330848,200.514796,923.568892,98.025
942, 10:29:08,54.4869,201.110322,926.423295,98.025
943, 10:29:08,54.543482,201.398911,927.009943,98.025
944, 10:29:08,54.591777,201.663589,927.526989,98.025
945, 10:29:08,54.697917,201.999527,929.133523,98.025
946, 10:29:08,54.79289,202.336056,929.848722,98.025
947, 10:29:08,54.911024,202.899266,932.28196,98.025
948, 10:29:08,55.001736,203.397727,934.877841,98.025
949, 10:29:08,55.148359,203.965909,936.440341,98.025
950, 10:29:08,55.247277,204.448272,938.044744,98.025
951, 10:29:08,55.395754,205.088305,939.90483,98.025
952, 10:29:08,55.48473,205.639323,942.304688,98.025
953, 10:29:08,55.610519,206.113755,943.713778,98.025
954, 10:29:08,55.692787,206.655066,945.586648,98.025
955, 10:29:08,55.769255,207.071023,946.778409,98.025
956, 10:29:08,55.921086,207.684659,949.463068,98.025
957, 10:29:08,56.018703,208.180161,951.225852,98.025
958, 10:29:08,56.10322,208.683712,952.607955,98.025
959, 10:29:08,56.197601,209.179451,954.130682,98.025
960, 10:29:09,56.298493,209.72455,955.955256,98.025
961, 10:29:09,56.34955,210.201113,956.195312,98.025
962, 10:29:09,56.269729,209.81108,955.278409,98.025
963, 10:29:09,55.909604,208.102391,949.029119,98.025
964, 10:29:09,55.465909,205.777936,940.357955,98.025
965, 10:29:09,55.242306,204.466027,936.668324,98.025
966, 10:29:09,55.119594,203.853575,933.993608,98.025
967, 10:29:09,55.101405,203.694839,934.399148,98.025
968, 10:29:09,55.135772,203.762429,934.960938,98.025
969, 10:29:09,55.21224,204.149503,937.044744,98.025
970, 10:29:09,55.300939,204.591264,937.112926,98.025
971, 10:29:09,55.374842,204.945549,939.190341,98.025
972, 10:29:09,55.41789,205.166548,939.661222,98.025
973, 10:29:09,55.44693,205.340791,940.141335,98.025
974, 10:29:09,55.521267,205.63151,941.661222,98.025
975, 10:29:09,55.616556,206.038589,943.160511,98.025
976, 10:29:09,55.720683,206.509115,944.858665,98.025
977, 10:29:09,55.82051,207.00509,946.683949,98.025
978, 10:29:09,55.871962,207.354522,947.46804,98.025
979, 10:29:09,56.002525,207.961174,949.556818,98.025
980, 10:29:09,56.078401,208.380563,951.022017,98.025
981, 10:29:09,56.143466,208.883523,952.846591,98.025
982, 10:29:09,56.25071,209.381392,953.600852,98.025
983, 10:29:09,56.333965,209.824811,955.738636,98.025
984, 10:29:09,56.42949,210.278527,957.543324,98.025
985, 10:29:09,56.505958,210.715791,958.825994,98.025
986, 10:29:09,56.604324,211.24858,960.582386,98.025
987, 10:29:09,56.676649,211.731652,961.960938,98.025
988, 10:29:09,56.735795,212.177083,963.875,98.025
989, 10:29:09,56.60176,211.756037,961.522017,98.025
990, 10:29:10,56.234572,209.972656,954.429688,98.025
991, 10:29:10,55.845841,207.924361,947.145597,98.025
992, 10:29:10,55.537287,206.471236,942.702415,98.025
993, 10:29:10,55.493766,206.059422,941.086648,98.025
994, 10:29:10,55.468079,205.774029,941.178267,98.025
995, 10:29:10,55.470486,205.794508,941.167614,98.025
996, 10:29:10,55.570391,206.169508,943.03125,98.025
997, 10:29:10,55.653646,206.582623,944.52983,98.025
998, 10:29:10,55.713305,206.953835,945.259943,98.025
999, 10:29:10,55.710661,207.054332,945.865767,98.025
1000, 10:29:10,55.755366,207.229167,945.835227,98.025
1001, 10:29:10,55.794074,207.37938,947.09446,98.025
1002, 10:29:10,55.888139,207.786103,948.810369,98.025
1003, 10:29:10,55.99199,208.308357,950.78196,98.025
1004, 10:29:10,56.052912,208.715554,951.926847,98.025
1005, 10:29:10,56.152383,209.231297,952.995739,98.025
1006, 10:29:10,56.224787,209.548887,953.980824,98.025
1007, 10:29:10,56.329585,210.075876,956.151278,98.025
1008, 10:29:10,56.392637,210.390507,957.473722,98.025
1009, 10:29:10,56.469381,210.887311,958.5625,98.025
1010, 10:29:10,56.554214,211.382339,960.046875,98.025
1011, 10:29:10,56.592606,211.689276,961.135653,98.025
1012, 10:29:10,56.695036,212.176491,963.453835,98.025
1013, 10:29:10,56.748224,212.53776,964.147017,98.025
1014, 10:29:10,56.840909,213.062027,965.798295,98.025
1015, 10:29:10,56.92369,213.532907,967.884943,98.025
1016, 10:29:10,56.893308,213.773674,967.946023,98.025
1017, 10:29:10,56.688763,212.918561,964.232955,98.025
1018, 10:29:10,56.213976,210.576113,955.360085,98.025
1019, 10:29:10,55.826665,208.216264,947.729403,98.025
1020, 10:29:11,55.531329,206.421638,941.973011,98.025
1021, 10:29:11,55.410985,205.624527,939.565341,98.025
1022, 10:29:11,55.328243,205.177912,937.939631,98.025
1023, 10:29:11,55.221394,204.852628,937.110085,98.025
1024, 10:29:11,55.273832,205.055871,937.894886,98.025
1025, 10:29:11,55.361111,205.351799,939.627841,98.025
1026, 10:29:11,55.43825,205.614938,941.022017,98.025
1027, 10:29:11,55.453835,205.688684,940.973011,98.025
1028, 10:29:11,55.485677,205.814986,941.651278,98.025
1029, 10:29:11,55.511482,205.979048,942.013494,98.025
1030, 10:29:11,55.548611,206.165246,942.394886,98.025
1031, 10:29:11,55.661537,206.627604,945.012784,98.025
1032, 10:29:11,55.707741,206.931937,945.654119,98.025
1033, 10:29:11,55.832465,207.444366,947.56108,98.025
1034, 10:29:11,55.869437,207.758404,948.144176,98.025
1035, 10:29:11,55.980942,208.292732,950.816051,98.025
1036, 10:29:11,56.041706,208.645478,951.256392,98.025
1037, 10:29:11,56.108467,208.920099,952.318892,98.025
1038, 10:29:11,56.198509,209.40045,954.087358,98.025
1039, 10:29:11,56.237966,209.684541,955.073153,98.025
1040, 10:29:11,56.355863,210.198272,957.036222,98.025
1041, 10:29:11,56.422191,210.56108,958.196023,98.025
1042, 10:29:11,56.487571,210.917732,958.759233,98.025
1043, 10:29:11,56.591264,211.469815,960.637074,98.025
1044, 10:29:11,56.606218,211.815341,961.267045,98.025
1045, 10:29:11,56.636679,212.082386,963.119318,98.025
1046, 10:29:11,56.339686,210.802675,956.796165,98.025
1047, 10:29:11,55.851484,208.325284,948.721591,98.025
1048, 10:29:11,55.383168,205.774029,939.854403,98.025
1049, 10:29:11,55.123856,204.211056,934.607244,98.025
1050, 10:29:12,54.981613,203.459991,932.27983,98.025
1051, 10:29:12,54.887824,202.870384,930.023438,98.025
1052, 10:29:12,54.876302,202.787997,930.057528,98.025
1053, 10:29:12,54.962279,203.038352,931.923295,98.025
1054, 10:29:12,55.029317,203.533499,933.357244,98.025
1055, 10:29:12,55.1134,203.815104,934.893466,98.025
1056, 10:29:12,55.129972,203.917377,935.223011,98.025
1057, 10:29:12,55.170139,204.076705,935.795455,98.025
1058, 10:29:12,55.229443,204.166548,936.294744,98.025
1059, 10:29:12,55.309975,204.563447,937.5625,98.025
1060, 10:29:12,55.399108,205.015033,939.982244,98.025
1061, 10:29:12,55.512745,205.487098,941.15554,98.025
1062, 10:29:12,55.598603,205.938329,943.067472,98.025
1063, 10:29:12,55.695707,206.424716,944.167614,98.025
1064, 10:29:12,55.786735,206.882931,945.93679,98.025
1065, 10:29:12,55.856061,207.212595,947.715909,98.025
1066, 10:29:12,55.94038,207.685724,948.577415,98.025
1067, 10:29:12,56.024187,208.100971,950.083097,98.025
1068, 10:29:12,56.079033,208.517874,951.772017,98.025
1069, 10:29:12,56.192274,209.019058,953.943892,98.025
1070, 10:29:12,56.275687,209.372988,954.692472,98.025
1071, 10:29:12,56.361664,209.910275,956.163352,98.025
1072, 10:29:12,56.451981,210.298177,957.272017,98.025
1073, 10:29:12,56.558436,210.817353,959.020597,98.025
1074, 10:29:12,56.553425,210.956676,959.62358,98.025
1075, 10:29:12,56.302517,209.98473,955.879972,98.025
1076, 10:29:12,55.794902,207.627604,947.180398,98.025
1077, 10:29:12,55.282947,205.072798,937.752131,98.025
1078, 10:29:12,55.008128,203.580729,932.771307,98.025
1079, 10:29:12,54.837792,202.819247,929.966619,98.025
1080, 10:29:13,54.765783,202.545455,929.096591,98.025
1081, 10:29:13,54.748382,202.493253,929.845881,98.025
1082, 10:29:13,54.825166,202.853338,930.935369,98.025
1083, 10:29:13,54.925663,203.31392,932.051136,98.025
1084, 10:29:13,54.942472,203.502604,932.504261,98.025
1085, 10:29:13,54.981218,203.713068,933.377841,98.025
1086, 10:29:13,55.019531,203.810014,933.752131,98.025
1087, 10:29:13,55.072049,204.031013,934.879261,98.025
1088, 10:29:13,55.177162,204.421165,936.765625,98.025
1089, 10:29:13,55.264047,204.841383,937.536932,98.025
1090, 10:29:13,55.345131,205.293442,940.209517,98.025
1091, 10:29:13,55.383838,205.698864,940.815341,98.025
1092, 10:29:13,55.501539,206.29581,943.178267,98.025
1093, 10:29:13,55.605193,206.741241,944.927557,98.025
1094, 10:29:13,55.729206,207.303149,946.574574,98.025
1095, 10:29:13,55.786419,207.618726,947.34304,98.025
1096, 10:29:13,55.894373,208.229048,950.090199,98.025
1097, 10:29:13,55.965436,208.601799,950.664773,98.025
1098, 10:29:13,56.036024,209.021899,951.736506,98.025
1099, 10:29:13,56.165641,209.553741,953.81392,98.025
1100, 10:29:13,56.232205,209.989228,955.421165,98.025
1101, 10:29:13,56.218198,210.154119,955.603693,98.025
1102, 10:29:13,55.90262,208.806345,949.471591,98.025
1103, 10:29:13,55.359572,206.231179,940.503551,98.025
1104, 10:29:13,54.967527,204.15116,933.924006,98.025
1105, 10:29:13,54.754301,203.113281,929.870028,98.025
1106, 10:29:13,54.71003,202.826586,930.016335,98.025
1107, 10:29:13,54.671954,202.609138,929.390625,98.025
1108, 10:29:13,54.725537,202.849905,930.272727,98.025
1109, 10:29:13,54.852904,203.401042,932.698864,98.025
1110, 10:29:14,54.918048,203.674598,933.840199,98.05
1111, 10:29:14,54.984336,204.019295,934.845881,98.05
1112, 10:29:14,55.003314,204.190341,935.474432,98.05
1113, 10:29:14,55.051255,204.438802,935.399858,98.05
1114, 10:29:14,55.136009,204.749882,937.553267,98.05
1115, 10:29:14,55.211608,205.257931,939.612926,98.05
1116, 10:29:14,55.328441,205.791667,940.423295,98.05
1117, 10:29:14,55.432765,206.263258,942.772727,98.05
1118, 10:29:14,55.551965,206.856179,944.585938,98.05
1119, 10:29:14,55.606416,207.197088,946.262074,98.05
1120, 10:29:14,55.732323,207.773201,948.576705,98.05
1121, 10:29:14,55.795928,208.179451,949.21875,98.05
1122, 10:29:14,55.918205,208.694484,951.397017,98.05
1123, 10:29:14,56.02395,209.184067,952.806108,98.05
1124, 10:29:14,56.07047,209.664536,954.262784,98.05
1125, 10:29:14,56.180003,210.1991,956.490057,98.05
1126, 10:29:14,56.229759,210.604522,956.868608,98.05
1127, 10:29:14,56.339489,211.272727,959.372159,98.05
1128, 10:29:14,56.377486,211.710109,960.442472,98.05
1129, 10:29:14,56.199692,211.082978,957.421165,98.05
1130, 10:29:14,55.706873,208.779238,948.044744,98.05
1131, 10:29:14,55.148911,206.024858,939.02983,98.05
1132, 10:29:14,54.808515,204.185014,933.246449,98.05
1133, 10:29:14,54.632615,203.30599,930.53196,98.05
1134, 10:29:14,54.576665,202.95348,929.587358,98.05
1135, 10:29:14,54.536735,202.743253,929.590199,98.05
1136, 10:29:14,54.576034,202.888613,929.990767,98.05
1137, 10:29:14,54.700087,203.364938,931.678267,98.05
1138, 10:29:14,54.735717,203.570312,932.509943,98.05
1139, 10:29:14,54.80378,203.872514,934.098722,98.05
1140, 10:29:15,54.824968,203.968277,933.840909,98.05
1141, 10:29:15,54.924716,204.325758,935.551136,98.05
1142, 10:29:15,54.978654,204.634351,936.453835,98.05
1143, 10:29:15,55.041864,204.986861,937.350142,98.05
1144, 10:29:15,55.168205,205.576113,939.547585,98.05
1145, 10:29:15,55.259746,205.961529,941.274858,98.05
1146, 10:29:15,55.367424,206.459754,943.420455,98.05
1147, 10:29:15,55.436592,207.023319,944.432528,98.05
1148, 10:29:15,55.509667,207.335819,945.847301,98.05
1149, 10:29:15,55.649424,207.907552,948.368608,98.05
1150, 10:29:15,55.742858,208.372514,950.178267,98.05
1151, 10:29:15,55.809422,208.763494,950.771307,98.05
1152, 10:29:15,55.91351,209.336648,952.875,98.05
1153, 10:29:15,55.995541,209.712476,954.050426,98.05
1154, 10:29:15,56.126578,210.379735,956.573864,98.05
1155, 10:29:15,56.157,210.742779,956.96804,98.05
1156, 10:29:15,56.2195,211.153764,958.615767,98.05
1157, 10:29:15,56.069839,210.73982,956.072443,98.05
1158, 10:29:15,55.60685,208.455019,947.6875,98.05
1159, 10:29:15,55.082426,205.823035,939.077415,98.05
1160, 10:29:15,54.72092,203.862571,931.794744,98.05
1161, 10:29:15,54.591461,202.996922,929.433239,98.05
1162, 10:29:15,54.507142,202.496804,927.321733,98.05
1163, 10:29:15,54.469934,202.342566,926.87358,98.05
1164, 10:29:15,54.594815,202.71295,929.289062,98.05
1165, 10:29:15,54.695747,203.082978,930.577415,98.05
1166, 10:29:15,54.798927,203.470644,932.090909,98.05
1167, 10:29:15,54.815893,203.616241,932.913352,98.05
1168, 10:29:15,54.857757,203.792495,933.379972,98.05
1169, 10:29:15,54.954901,204.042259,935.196733,98.05
1170, 10:29:16,55.004972,204.336884,936.038352,98.05
1171, 10:29:16,55.12721,204.883523,938.369318,98.05
1172, 10:29:16,55.204743,205.260535,938.566051,98.05
1173, 10:29:16,55.316801,205.770005,941.040483,98.05
1174, 10:29:16,55.405698,206.241241,941.848011,98.05
1175, 10:29:16,55.53271,206.763849,943.762074,98.05
1176, 10:29:16,55.6555,207.256747,946.193892,98.05
1177, 10:29:16,55.705098,207.68679,947.589489,98.05
1178, 10:29:16,55.809383,208.21366,948.324574,98.05
1179, 10:29:16,55.882931,208.564986,949.912642,98.05
1180, 10:29:16,56.011166,209.077533,952.377131,98.05
1181, 10:29:16,56.075639,209.480232,952.983665,98.05
1182, 10:29:16,56.164931,209.97822,955.340909,98.05
1183, 10:29:16,56.220092,210.351562,956.046875,98.05
1184, 10:29:16,56.043284,209.666785,952.642756,98.05
1185, 10:29:16,55.637863,207.683475,944.589489,98.05
1186, 10:29:16,55.184501,205.405303,937.377841,98.05
1187, 10:29:16,54.983191,204.136127,934.268466,98.05
1188, 10:29:16,54.905974,203.68383,933.080256,98.05
1189, 10:29:16,54.85973,203.486387,931.855824,98.05
1190, 10:29:16,54.917771,203.702652,932.181818,98.05
1191, 10:29:16,55.042022,204.144058,934.540483,98.05
1192, 10:29:16,55.146662,204.647846,936.338778,98.05
1193, 10:29:16,55.196299,204.893348,937.269176,98.05
1194, 10:29:16,55.224274,205.070549,937.701705,98.05
1195, 10:29:16,55.266256,205.206439,938.440341,98.05
1196, 10:29:16,55.322325,205.531842,940.154119,98.05
1197, 10:29:16,55.443695,205.975971,941.165483,98.05
1198, 10:29:16,55.485243,206.351089,942.424716,98.05
1199, 10:29:16,55.625552,206.93821,944.294034,98.05
1200, 10:29:17,55.694839,207.31321,945.703125,98.05
1201, 10:29:17,55.810133,207.908617,948.627841,98.05
1202, 10:29:17,55.895044,208.392045,949.846591,98.05
1203, 10:29:17,55.98694,208.757694,950.767756,98.05
1204, 10:29:17,56.097893,209.341501,952.506392,98.05
1205, 10:29:17,56.149542,209.641809,953.271307,98.05
1206, 10:29:17,56.256747,210.204427,956.166903,98.05
1207, 10:29:17,56.28413,210.554096,956.867188,98.05
1208, 10:29:17,56.382891,211.144886,958.474432,98.05
1209, 10:29:17,56.29723,211.165838,956.727983,98.05
1210, 10:29:17,56.014481,209.724313,952.058949,98.05
1211, 10:29:17,55.504459,207.259115,942.333097,98.05
1212, 10:29:17,55.138849,205.300071,937.027699,98.05
1213, 10:29:17,54.963699,204.392992,933.113636,98.05
1214, 10:29:17,54.863005,203.951231,932.426136,98.05
1215, 10:29:17,54.829309,203.716146,931.697443,98.05
1216, 10:29:17,54.843277,203.830019,932.920455,98.05
1217, 10:29:17,54.943182,204.362216,934.153409,98.05
1218, 10:29:17,55.060803,204.778527,936.355824,98.05
1219, 10:29:17,55.058909,204.847183,936.068892,98.05
1220, 10:29:17,55.077375,205.048414,936.784801,98.05
1221, 10:29:17,55.114228,205.220052,937.402699,98.05
1222, 10:29:17,55.18967,205.557173,938.519176,98.05
1223, 10:29:17,55.261521,205.978693,940.551136,98.05
1224, 10:29:17,55.35322,206.34517,942.573864,98.05
1225, 10:29:17,55.444878,206.835582,943.604403,98.05
1226, 10:29:17,55.514205,207.306345,944.323864,98.05
1227, 10:29:17,55.602154,207.759115,946.299006,98.05
1228, 10:29:17,55.699021,208.209754,948.377841,98.05
1229, 10:29:17,55.757536,208.622041,948.899858,98.05
1230, 10:29:18,55.855745,209.182292,950.875,98.025
1231, 10:29:18,55.896583,209.446851,952.070312,98.025
1232, 10:29:18,55.97096,209.97964,953.272727,98.025
1233, 10:29:18,56.054056,210.412642,955.169034,98.025
1234, 10:29:18,56.115491,210.862098,956.164062,98.025
1235, 10:29:18,56.189354,211.344579,957.360085,98.025
1236, 10:29:18,56.192314,211.507812,958.299716,98.025
1237, 10:29:18,55.911301,210.38589,953.338068,98.025
1238, 10:29:18,55.408539,207.890388,944.919034,98.025
1239, 10:29:18,54.944247,205.543916,935.746449,98.025
1240, 10:29:18,54.680003,204.131866,930.805398,98.025
1241, 10:29:18,54.548493,203.43383,928.475142,98.025
1242, 10:29:18,54.492306,203.031368,927.37571,98.025
1243, 10:29:18,54.450836,202.944839,928.046875,98.025
1244, 10:29:18,54.539575,203.22242,928.916903,98.025
1245, 10:29:18,54.648003,203.712476,931.266335,98.025
1246, 10:29:18,54.674361,203.852628,932.382812,98.025
1247, 10:29:18,54.701389,204.004735,931.710227,98.025
1248, 10:29:18,54.725063,204.172348,932.409091,98.025
1249, 10:29:18,54.81325,204.529711,934.101562,98.025
1250, 10:29:18,54.844894,204.744437,935.03196,98.025
1251, 10:29:18,54.971551,205.335582,937.254972,98.025
1252, 10:29:18,55.055122,205.782315,938.662642,98.025
1253, 10:29:18,55.133207,206.151042,940.215909,98.025
1254, 10:29:18,55.239386,206.749882,942.908381,98.025
1255, 10:29:18,55.314986,207.135298,943.286222,98.025
1256, 10:29:18,55.436987,207.653764,944.595881,98.025
1257, 10:29:18,55.500947,208.048295,946.505682,98.025
1258, 10:29:18,55.622277,208.60831,948.754972,98.025
1259, 10:29:18,55.665878,208.93892,948.681818,98.025
1260, 10:29:19,55.719105,209.413944,950.852983,98.025
1261, 10:29:19,55.852904,210.070549,952.426136,98.025
1262, 10:29:19,55.930477,210.513968,954.927557,98.025
1263, 10:29:19,56.003235,211.043324,956.72017,98.025
1264, 10:29:19,56.052596,211.398319,957.25071,98.025
1265, 10:29:19,55.900844,210.766927,954.712358,98.025
1266, 10:29:19,55.432489,208.59813,945.585938,98.025
1267, 10:29:19,54.973288,206.055753,937.263494,98.025
1268, 10:29:19,54.698509,204.421283,931.110085,98.025
1269, 10:29:19,54.523595,203.62429,929.396307,98.025
1270, 10:29:19,54.468711,203.385772,928.294744,98.025
1271, 10:29:19,54.425308,203.142401,927.462358,98.025
1272, 10:29:19,54.520084,203.505327,929.057528,98.025
1273, 10:29:19,54.626736,203.880682,931.474432,98.025
1274, 10:29:19,54.690735,204.196259,931.887784,98.025
1275, 10:29:19,54.697759,204.295928,932.505682,98.025
1276, 10:29:19,54.724471,204.383168,932.708097,98.025
1277, 10:29:19,54.770281,204.691998,933.794034,98.025
1278, 10:29:19,54.824692,204.881747,934.588778,98.025
1279, 10:29:19,54.916903,205.292377,936.129261,98.025
1280, 10:29:19,55.017322,205.732836,937.581676,98.025
1281, 10:29:19,55.098051,206.177202,939.90696,98.025
1282, 10:29:19,55.191012,206.633168,940.838778,98.025
1283, 10:29:19,55.218789,206.987808,942.651278,98.025
1284, 10:29:19,55.32923,207.411932,944.048295,98.025
1285, 10:29:19,55.427438,207.862808,945.370028,98.025
1286, 10:29:19,55.479837,208.341027,946.972301,98.025
1287, 10:29:19,55.554451,208.679451,948.119318,98.025
1288, 10:29:19,55.627999,209.151515,949.0625,98.025
1289, 10:29:19,55.734257,209.583452,950.818892,98.025
1290, 10:29:20,55.763771,210.045573,951.747869,98.025
1291, 10:29:20,55.821259,210.402225,953.865057,98.025
1292, 10:29:20,55.669942,209.871567,951.59304,98.025
1293, 10:29:20,55.254695,207.817116,943.456676,98.025
1294, 10:29:20,54.8198,205.545573,934.912642,98.025
1295, 10:29:20,54.556779,204.019768,929.706676,98.025
1296, 10:29:20,54.436316,203.384233,928.558239,98.025
1297, 10:29:20,54.394058,203.185488,927.402699,98.025
1298, 10:29:20,54.419508,203.252367,928.125,98.025
1299, 10:29:20,54.534209,203.729048,930.43679,98.025
1300, 10:29:20,54.602904,204.026515,931.741477,98.025
1301, 10:29:20,54.678859,204.355232,933.361506,98.025
1302, 10:29:20,54.629538,204.479995,932.479403,98.025
1303, 10:29:20,54.650923,204.535156,933.071733,98.025
1304, 10:29:20,54.709438,204.711648,934.190341,98.025
1305, 10:29:20,54.802123,205.133168,935.830256,98.025
1306, 10:29:20,54.906368,205.599313,937.527699,98.025
1307, 10:29:20,54.974984,205.964252,938.759943,98.025
1308, 10:29:20,55.032592,206.380919,940.615057,98.025
1309, 10:29:20,55.179332,206.948509,942.066051,98.025
1310, 10:29:20,55.257457,207.40116,943.742188,98.025
1311, 10:29:20,55.364228,207.899029,945.459517,98.025
1312, 10:29:20,55.399858,208.211411,946.507102,98.025
1313, 10:29:20,55.511048,208.730587,948.894886,98.025
1314, 10:29:20,55.540562,209.088068,949.122159,98.025
1315, 10:29:20,55.618924,209.566051,951.041193,98.025
1316, 10:29:20,55.717053,210.012429,952.105824,98.025
1317, 10:29:20,55.760298,210.419626,953.020597,98.025
1318, 10:29:20,55.735401,210.452888,953.387784,98.025
1319, 10:29:20,55.316209,208.66643,946.242898,98.025
1320, 10:29:21,54.801413,206.041548,936.181108,98.025
1321, 10:29:21,54.408578,203.759825,928.81179,98.025
1322, 10:29:21,54.17878,202.452533,925.189631,98.025
1323, 10:29:21,54.084438,201.896307,922.838068,98.025
1324, 10:29:21,53.993292,201.475142,921.600852,98.025
1325, 10:29:21,54.028093,201.587121,922.84375,98.025
1326, 10:29:21,54.110401,201.913116,924.703125,98.025
1327, 10:29:21,54.186514,202.278291,925.618608,98.025
1328, 10:29:21,54.256234,202.575521,926.59517,98.025
1329, 10:29:21,54.289891,202.69117,926.212358,98.025
1330, 10:29:21,54.323193,202.88956,927.152699,98.025
1331, 10:29:21,54.363557,203.077415,928.262784,98.025
1332, 10:29:21,54.493292,203.550426,930.59517,98.025
1333, 10:29:21,54.528212,203.981889,931.075994,98.025
1334, 10:29:21,54.639994,204.444602,933.25,98.025
1335, 10:29:21,54.769373,205.001302,935.845881,98.025
1336, 10:29:21,54.843553,205.377249,936.743608,98.025
1337, 10:29:21,54.956597,205.871686,938.778409,98.025
1338, 10:29:21,55.013652,206.217566,939.598011,98.025
1339, 10:29:21,55.109138,206.743608,941.677557,98.025
1340, 10:29:21,55.173059,207.122396,943.115057,98.025
1341, 10:29:21,55.209596,207.390625,943.397727,98.025
1342, 10:29:21,55.336766,207.993253,946.104403,98.025
1343, 10:29:21,55.410511,208.333333,947.085227,98.025
1344, 10:29:21,55.498422,208.893939,949.420455,98.025
1345, 10:29:21,55.557844,209.283381,949.734375,98.025
1346, 10:29:21,55.40846,208.797822,946.78125,98.025
1347, 10:29:21,54.898674,206.487216,938.536932,98.025
1348, 10:29:21,54.327178,203.518466,928.235795,98.025
1349, 10:29:21,53.994042,201.667732,921.767756,98.025
1350, 10:29:22,53.790049,200.580374,918.274858,98.0
1351, 10:29:22,53.722183,200.094579,916.965199,98.0
1352, 10:29:22,53.685764,199.887784,916.698864,98.0
1353, 10:29:22,53.724471,200.032789,917.574574,98.0
1354, 10:29:22,53.891611,200.650687,920.455256,98.0
1355, 10:29:22,53.976799,200.969223,921.571023,98.0
1356, 10:29:22,53.999448,201.179214,921.103693,98.0
1357, 10:29:22,54.078875,201.496094,923.033381,98.0
1358, 10:29:22,54.188052,201.83357,924.262784,98.0
1359, 10:29:22,54.253235,202.200521,925.600852,98.0
1360, 10:29:22,54.393703,202.742188,927.816761,98.0
1361, 10:29:22,54.514717,203.314039,929.452415,98.0
1362, 10:29:22,54.619081,203.814631,931.961648,98.0
1363, 10:29:22,54.7558,204.421757,933.485085,98.0
1364, 10:29:22,54.813644,204.876539,934.492188,98.0
1365, 10:29:22,54.950087,205.433594,937.360085,98.0
1366, 10:29:22,55.067708,205.944602,939.690341,98.0
1367, 10:29:22,55.200363,206.459044,940.87358,98.0
1368, 10:29:22,55.302912,206.960346,942.935369,98.0
1369, 10:29:22,55.348169,207.330019,943.755682,98.0
1370, 10:29:22,55.477036,207.910748,945.995739,98.0
1371, 10:29:22,55.561592,208.352391,947.583097,98.0
1372, 10:29:22,55.679648,208.912997,949.046165,98.0
1373, 10:29:22,55.702139,209.332268,951.090199,98.0
1374, 10:29:22,55.57193,208.844579,948.269176,98.0
1375, 10:29:22,55.140309,206.764678,940.215909,98.0
1376, 10:29:22,54.644413,204.18892,931.352273,98.0
1377, 10:29:22,54.368529,202.648201,925.190341,98.0
1378, 10:29:22,54.27111,201.953954,923.522017,98.0
1379, 10:29:22,54.205295,201.799124,923.664062,98.0
1380, 10:29:23,54.241438,201.805279,923.706676,97.975
1381, 10:29:23,54.308357,202.12062,925.090199,97.975
1382, 10:29:23,54.486624,202.777107,927.105824,97.975
1383, 10:29:23,54.506866,203.052794,928.115057,97.975
1384, 10:29:23,54.573943,203.324574,929.677557,97.975
1385, 10:29:23,54.608073,203.506037,929.766335,97.975
1386, 10:29:23,54.687421,203.820312,931.776989,97.975
1387, 10:29:23,54.793561,204.21875,932.764205,97.975
1388, 10:29:23,54.871528,204.710227,935.34375,97.975
1389, 10:29:23,54.982165,205.245739,936.721591,97.975
1390, 10:29:23,55.079703,205.657197,938.539773,97.975
1391, 10:29:23,55.192827,206.243726,940.422585,97.975
1392, 10:29:23,55.279317,206.68312,941.601562,97.975
1393, 10:29:23,55.357481,207.116951,943.210227,97.975
1394, 10:29:23,55.454033,207.591738,944.871449,97.975
1395, 10:29:23,55.517519,207.981061,945.630682,97.975
1396, 10:29:23,55.603141,208.508759,946.870739,97.975
1397, 10:29:23,55.691998,208.995028,948.694602,97.975
1398, 10:29:23,55.800426,209.513968,951.038352,97.975
1399, 10:29:23,55.872238,210.015388,952.274148,97.975
1400, 10:29:23,55.851089,210.091619,952.319602,97.975
1401, 10:29:23,55.544508,208.790246,946.511364,97.975
1402, 10:29:23,55.081913,206.431818,938.528409,97.975
1403, 10:29:23,54.730903,204.601799,931.588068,97.975
1404, 10:29:23,54.544823,203.507576,928.676136,97.975
1405, 10:29:23,54.524345,203.312618,928.679688,97.975
1406, 10:29:23,54.517085,203.375592,928.818892,97.975
1407, 10:29:23,54.588936,203.683949,930.115057,97.975
1408, 10:29:23,54.726365,204.168679,932.546165,97.975
1409, 10:29:23,54.79727,204.545691,934.035511,97.975
1410, 10:29:24,54.826705,204.728693,934.386364,97.975
1411, 10:29:24,54.833176,204.859375,934.375,97.975
1412, 10:29:24,54.891414,205.056345,935.116477,97.975
1413, 10:29:24,54.989978,205.465199,937.160511,97.975
1414, 10:29:24,55.046717,205.825284,937.985795,97.975
1415, 10:29:24,55.176886,206.429332,940.408381,97.975
1416, 10:29:24,55.228733,206.76527,941.585938,97.975
1417, 10:29:24,55.333097,207.322206,943.646307,97.975
1418, 10:29:24,55.432489,207.72455,944.742188,97.975
1419, 10:29:24,55.502644,208.153764,946.039062,97.975
1420, 10:29:24,55.597025,208.637192,947.584517,97.975
1421, 10:29:24,55.638968,208.982718,949.31108,97.975
1422, 10:29:24,55.730035,209.406487,950.09233,97.975
1423, 10:29:24,55.761364,209.710701,951.707386,97.975
1424, 10:29:24,55.875789,210.33286,952.633523,97.975
1425, 10:29:24,55.962516,210.787642,954.950284,97.975
1426, 10:29:24,55.967132,211.165128,954.899858,97.975
1427, 10:29:24,55.866398,210.690578,953.339489,97.975
1428, 10:29:24,55.380682,208.451231,945.349432,97.975
1429, 10:29:24,54.91134,205.832978,935.546165,97.975
1430, 10:29:24,54.520241,203.784209,929.841619,97.975
1431, 10:29:24,54.377052,202.789299,925.775568,97.975
1432, 10:29:24,54.243963,202.224313,924.15554,97.975
1433, 10:29:24,54.190617,201.970052,923.314631,97.975
1434, 10:29:24,54.244318,202.099432,923.920455,97.975
1435, 10:29:24,54.319168,202.423414,925.889915,97.975
1436, 10:29:24,54.410827,202.829545,928.005682,97.975
1437, 10:29:24,54.441525,202.939157,927.370739,97.975
1438, 10:29:24,54.485756,203.09884,928.06179,97.975
1439, 10:29:24,54.546993,203.341264,928.837358,97.975
1440, 10:29:25,54.581834,203.549953,930.004261,97.725
1441, 10:29:25,54.701823,204.077533,931.908381,97.725
1442, 10:29:25,54.762981,204.434304,933.347301,97.725
1443, 10:29:25,54.880011,204.884825,934.837358,97.725
1444, 10:29:25,54.953717,205.302438,936.800426,97.725
1445, 10:29:25,55.058949,205.788589,938.205966,97.725
1446, 10:29:25,55.138297,206.219815,939.398438,97.725
1447, 10:29:25,55.201349,206.529238,940.578835,97.725
1448, 10:29:25,55.301334,207.032789,942.466619,97.725
1449, 10:29:25,55.374566,207.416312,943.145597,97.725
1450, 10:29:25,55.475773,207.869555,944.683239,97.725
1451, 10:29:25,55.520952,208.20348,946.257812,97.725
1452, 10:29:25,55.612571,208.639323,948.120028,97.725
1453, 10:29:25,55.668876,209.098485,949.039773,97.725
1454, 10:29:25,55.770873,209.581084,950.87571,97.725
1455, 10:29:25,55.668482,209.254972,949.612216,97.725
1456, 10:29:25,55.201271,207.009115,940.566051,97.725
1457, 10:29:25,54.624724,204.234967,930.472301,97.725
1458, 10:29:25,54.275963,202.19768,922.600852,97.725
1459, 10:29:25,54.096078,201.177438,920.075994,97.725
1460, 10:29:25,54.023043,200.568182,918.545455,97.725
1461, 10:29:25,53.974156,200.413471,918.384233,97.725
1462, 10:29:25,54.042929,200.594223,919.150568,97.725
1463, 10:29:25,54.150805,201.012074,921.646307,97.725
1464, 10:29:25,54.267243,201.584399,923.429688,97.725
1465, 10:29:25,54.309856,201.745857,923.429688,97.725
1466, 10:29:25,54.338778,201.87571,924.231534,97.725
1467, 10:29:25,54.42223,202.261482,925.753551,97.725
1468, 10:29:25,54.526712,202.601918,927.65696,97.725
1469, 10:29:25,54.617464,203.070194,929.148438,97.725
1470, 10:29:26,54.738084,203.463778,930.785511,97.725
1471, 10:29:26,54.855587,204.074811,932.377841,97.725
1472, 10:29:26,54.922112,204.539536,934.370739,97.725
1473, 10:29:26,55.044586,205.066525,935.893466,97.725
1474, 10:29:26,55.146938,205.548769,938.346591,97.725
1475, 10:29:26,55.253709,206.107244,939.663352,97.725
1476, 10:29:26,55.324692,206.478338,940.901278,97.725
1477, 10:29:26,55.38593,206.853812,942.037642,97.725
1478, 10:29:26,55.509075,207.415956,944.163352,97.725
1479, 10:29:26,55.59154,207.845644,945.994318,97.725
1480, 10:29:26,55.689473,208.353456,947.166193,97.725
1481, 10:29:26,55.810961,208.929569,949.239347,97.725
1482, 10:29:26,55.837279,209.287879,950.448864,97.725
1483, 10:29:26,55.846354,209.397491,950.146307,97.725
1484, 10:29:26,55.504459,207.982126,944.199574,97.725
1485, 10:29:26,55.0189,205.497041,935.735085,97.725
1486, 10:29:26,54.656684,203.533973,928.581676,97.725
1487, 10:29:26,54.445391,202.541667,925.639205,97.725
1488, 10:29:26,54.353259,202.198035,924.628551,97.725
1489, 10:29:26,54.352707,202.063802,924.973722,97.725
1490, 10:29:26,54.429017,202.39974,926.049006,97.725
1491, 10:29:26,54.546599,202.948982,928.230824,97.725
1492, 10:29:26,54.607876,203.266809,929.475852,97.725
1493, 10:29:26,54.657236,203.587713,930.654119,97.725
1494, 10:29:26,54.658775,203.618845,930.610795,97.725
1495, 10:29:26,54.735914,203.884825,931.28054,97.725
1496, 10:29:26,54.774227,204.170218,932.137784,97.725
1497, 10:29:26,54.904711,204.603338,934.733665,97.725
1498, 10:29:26,55.003078,205.093987,936.21733,97.725
1499, 10:29:26,55.075679,205.515388,937.901989,97.725
1500, 10:29:27,55.163313,206.070904,939.428267,97.975
1501, 10:29:27,55.236308,206.502486,940.881392,97.975
1502, 10:29:27,55.38155,207.135653,942.632102,97.975
1503, 10:29:27,55.475931,207.548532,944.419034,97.975
1504, 10:29:27,55.51744,207.8866,945.700284,97.975
1505, 10:29:27,55.603693,208.415246,947.125,97.975
1506, 10:29:27,55.687776,208.790128,948.382812,97.975
1507, 10:29:27,55.773516,209.374053,950.360795,97.975
1508, 10:29:27,55.849984,209.808475,951.401989,97.975
1509, 10:29:27,55.894334,210.261127,952.910511,97.975
1510, 10:29:27,55.75655,209.747869,950.223011,97.975
1511, 10:29:27,55.321615,207.615885,941.897017,97.975
1512, 10:29:27,54.838108,205.320194,933.929688,97.975
1513, 10:29:27,54.534722,203.706913,928.434659,97.975
1514, 10:29:27,54.395636,203.105942,926.24929,97.975
1515, 10:29:27,54.375552,202.88518,926.234375,97.975
1516, 10:29:27,54.35176,202.783499,926.203835,97.975
1517, 10:29:27,54.430122,203.208925,927.441051,97.975
1518, 10:29:27,54.54289,203.687382,930.161222,97.975
1519, 10:29:27,54.58649,204.060606,930.707386,97.975
1520, 10:29:27,54.600024,204.190696,931.340199,97.975
1521, 10:29:27,54.646307,204.397254,932.153409,97.975
1522, 10:29:27,54.724313,204.719342,933.935369,97.975
1523, 10:29:27,54.778685,204.971946,935.254972,97.975
1524, 10:29:27,54.892519,205.490057,937.446023,97.975
1525, 10:29:27,54.971828,205.874763,937.987216,97.975
1526, 10:29:27,55.085464,206.447206,939.694602,97.975
1527, 10:29:27,55.192787,206.992188,941.464489,97.975
1528, 10:29:27,55.259075,207.376184,943.137784,97.975
1529, 10:29:27,55.36845,207.921638,945.552557,97.975
1530, 10:29:28,55.417732,208.305279,946.212358,97.975
1531, 10:29:28,55.517835,208.859848,948.380682,97.975
1532, 10:29:28,55.579309,209.333097,949.379261,97.975
1533, 10:29:28,55.643939,209.685133,951.264205,97.975
1534, 10:29:28,55.771425,210.284446,952.570312,97.975
1535, 10:29:28,55.800781,210.531605,953.806108,97.975
1536, 10:29:28,55.911537,211.213778,955.399148,97.975
1537, 10:29:28,55.941722,211.484257,955.888494,97.975
1538, 10:29:28,55.705729,210.782907,952.455966,97.975
1539, 10:29:28,55.233112,208.500947,943.704545,97.975
1540, 10:29:28,54.749092,205.727865,934.921165,97.975
1541, 10:29:28,54.442432,203.982126,928.352983,97.975
1542, 10:29:28,54.244713,203.020123,925.421875,97.975
1543, 10:29:28,54.174519,202.586529,924.399858,97.975
1544, 10:29:28,54.158341,202.415365,923.972301,97.975
1545, 10:29:28,54.206321,202.605705,924.827415,97.975
1546, 10:29:28,54.337713,203.123461,927.976562,97.975
1547, 10:29:28,54.422151,203.387666,928.794744,97.975
1548, 10:29:28,54.500039,203.658736,929.574574,97.975
1549, 10:29:28,54.520991,203.756629,929.576705,97.975
1550, 10:29:28,54.544863,204.033262,929.835938,97.975
1551, 10:29:28,54.684225,204.478812,932.458097,97.975
1552, 10:29:28,54.777738,204.917969,934.431108,97.975
1553, 10:29:28,54.918482,205.474195,936.15767,97.975
1554, 10:29:28,54.979601,205.897609,937.473722,97.975
1555, 10:29:28,55.122633,206.45928,939.670455,97.975
1556, 10:29:28,55.217172,206.954545,941.744318,97.975
1557, 10:29:28,55.293048,207.453007,943.243608,97.975
1558, 10:29:28,55.393505,207.906842,944.881392,97.975
1559, 10:29:28,55.458728,208.388494,946.683239,97.975
1560, 10:29:29,55.588305,208.962358,948.149148,97.975
1561, 10:29:29,55.676215,209.422112,949.794034,97.975
1562, 10:29:29,55.766848,209.914654,952.209517,97.975
1563, 10:29:29,55.884233,210.523911,953.163352,97.975
1564, 10:29:29,55.939276,210.953243,953.924006,97.975
1565, 10:29:29,56.063684,211.616241,956.785511,97.975
1566, 10:29:29,56.116004,212.073864,958.09375,97.975
1567, 10:29:29,56.023201,211.810133,956.340909,97.975
1568, 10:29:29,55.630169,209.953954,948.857244,97.975
1569, 10:29:29,55.23694,207.460346,940.466619,97.975
1570, 10:29:29,54.970762,205.743253,934.885653,97.975
1571, 10:29:29,54.815854,204.918205,933.557528,97.975
1572, 10:29:29,54.758957,204.604995,932.496449,97.975
1573, 10:29:29,54.7631,204.50142,932.982955,97.975
1574, 10:29:29,54.844184,204.821378,933.797585,97.975
1575, 10:29:29,54.969658,205.296283,936.033381,97.975
1576, 10:29:29,55.006076,205.5509,936.96733,97.975
1577, 10:29:29,55.092527,205.907789,937.120028,97.975
1578, 10:29:29,55.102746,206.060133,937.872159,97.975
1579, 10:29:29,55.18166,206.387784,938.599432,97.975
1580, 10:29:29,55.232994,206.620384,939.65696,97.975
1581, 10:29:29,55.324219,207.117543,940.53196,97.975
1582, 10:29:29,55.434186,207.63447,942.988636,97.975
1583, 10:29:29,55.541588,208.096828,945.441761,97.975
1584, 10:29:29,55.623816,208.634233,946.700284,97.975
1585, 10:29:29,55.732086,209.071733,948.731534,97.975
1586, 10:29:29,55.826586,209.645952,950.571733,97.975
1587, 10:29:29,55.870936,210.082978,952.216619,97.975
1588, 10:29:29,55.982442,210.699692,953.169744,97.975
1589, 10:29:29,56.053228,211.136482,954.114347,97.975
1590, 10:29:30,56.126223,211.53776,955.712358,97.975
1591, 10:29:30,56.246646,212.163234,958.362926,97.975
1592, 10:29:30,56.2936,212.556463,959.776278,97.975
1593, 10:29:30,56.394847,213.091264,961.232244,97.975
1594, 10:29:30,56.477233,213.642401,963.175426,97.975
1595, 10:29:30,56.412682,213.698272,962.794744,97.975
1596, 10:29:30,56.139678,212.274621,957.082386,97.975
1597, 10:29:30,55.73327,210.09375,949.377841,97.975
1598, 10:29:30,55.461845,208.351444,944.605824,97.975
1599, 10:29:30,55.332741,207.681937,942.25071,97.975
1600, 10:29:30,55.361821,207.5509,942.100852,97.975
1601, 10:29:30,55.38664,207.615885,943.323153,97.975
1602, 10:29:30,55.427517,207.887666,943.610085,97.975
1603, 10:29:30,55.55161,208.465436,946.139205,97.975
1604, 10:29:30,55.589962,208.743845,946.306818,97.975
1605, 10:29:30,55.619515,208.987334,947.392756,97.975
1606, 10:29:30,55.639165,209.144295,947.953835,97.975
1607, 10:29:30,55.698745,209.363755,948.753551,97.975
1608, 10:29:30,55.760693,209.706795,950.016335,97.975
1609, 10:29:30,55.816564,210.13151,951.448153,97.975
1610, 10:29:30,55.914023,210.601444,953.352983,97.975
1611, 10:29:30,55.989307,211.072088,953.915483,97.975
1612, 10:29:30,56.050032,211.60464,954.917614,97.975
1613, 10:29:30,56.161222,212.058949,957.007102,97.975
1614, 10:29:30,56.258325,212.551491,959.331676,97.975
1615, 10:29:30,56.318537,212.989228,960.560369,97.975
1616, 10:29:30,56.389875,213.43099,961.84446,97.975
1617, 10:29:30,56.475852,213.887784,963.903409,97.975
1618, 10:29:30,56.548966,214.346236,965.193892,97.975
1619, 10:29:30,56.626933,214.77474,967.333097,97.975
1620, 10:29:31,56.735164,215.326705,969.105114,97.975
1621, 10:29:31,56.759983,215.581558,969.958097,97.975
1622, 10:29:31,56.608428,215.187973,967.286932,97.975
1623, 10:29:31,56.177083,213.102273,959.303977,97.975
1624, 10:29:31,55.802794,210.929688,951.487216,97.975
1625, 10:29:31,55.564986,209.373935,946.757812,97.975
1626, 10:29:31,55.45786,208.641098,945.40625,97.975
1627, 10:29:31,55.434817,208.413352,945.448864,97.975
1628, 10:29:31,55.403922,208.201823,944.628551,97.975
1629, 10:29:31,55.470802,208.451705,945.863636,97.975
1630, 10:29:31,55.557765,208.828598,946.303977,97.975
1631, 10:29:31,55.580216,209.100024,948.137074,97.975
1632, 10:29:31,55.607363,209.263849,948.134233,97.975
1633, 10:29:31,55.626776,209.367543,948.46946,97.975
1634, 10:29:31,55.698943,209.524384,949.424716,97.975
1635, 10:29:31,55.717724,209.779593,950.419034,97.975
1636, 10:29:31,55.842053,210.274266,952.333097,97.975
1637, 10:29:31,55.906289,210.686198,953.679688,97.975
1638, 10:29:31,56.010574,211.144886,955.5,97.975
1639, 10:29:31,56.108428,211.610795,956.931818,97.975
1640, 10:29:31,56.140941,211.980587,958.09375,97.975
1641, 10:29:31,56.249882,212.414891,959.475142,97.975
1642, 10:29:31,56.284328,212.755445,960.231534,97.975
1643, 10:29:31,56.362689,213.242898,961.230114,97.975
1644, 10:29:31,56.467527,213.679569,964.088778,97.975
1645, 10:29:31,56.543245,214.06392,965.269886,97.975
1646, 10:29:31,56.587871,214.422704,966.360085,97.975
1647, 10:29:31,56.666193,214.845644,968.164773,97.975
1648, 10:29:31,56.775647,215.406487,970.379261,97.975
1649, 10:29:31,56.828441,215.693655,970.630682,97.975
1650, 10:29:32,56.670218,215.075047,968.140625,97.975
1651, 10:29:32,56.265743,212.905658,959.854403,97.975
1652, 10:29:32,55.813368,210.317472,951.441761,97.975
1653, 10:29:32,55.551334,208.456558,945.139915,97.975
1654, 10:29:32,55.414852,207.407907,942.478693,97.975
1655, 10:29:32,55.345447,206.923177,942.058949,97.975
1656, 10:29:32,55.320391,206.684186,941.178977,97.975
1657, 10:29:32,55.322483,206.761009,942.131392,97.975
1658, 10:29:32,55.417495,207.096236,943.114347,97.975
1659, 10:29:32,55.450521,207.235085,943.555398,97.975
1660, 10:29:32,55.480429,207.304451,943.991477,97.975
1661, 10:29:32,55.514244,207.426255,944.477983,97.975
1662, 10:29:32,55.536458,207.588542,944.957386,97.975
1663, 10:29:32,55.633602,207.980824,946.990057,97.975
1664, 10:29:32,55.705216,208.24491,947.321733,97.975
1665, 10:29:32,55.824732,208.711411,950.356534,97.975
1666, 10:29:32,55.94334,209.205492,951.474432,97.975
1667, 10:29:32,55.974235,209.568063,952.53054,97.975
1668, 10:29:32,56.120699,210.203954,954.851562,97.975
1669, 10:29:32,56.172072,210.509115,955.418324,97.975
1670, 10:29:32,56.266572,210.990057,957.03125,97.975
1671, 10:29:32,56.356613,211.43679,959.56392,97.975
1672, 10:29:32,56.461174,212.023674,961.241477,97.975
1673, 10:29:32,56.502012,212.480469,962.098722,97.975
1674, 10:29:32,56.556779,212.946851,962.925426,97.975
1675, 10:29:32,56.701428,213.421993,965.384233,97.975
1676, 10:29:32,56.772293,213.854759,966.699574,97.975
1677, 10:29:32,56.900608,214.453717,968.350142,97.975
1678, 10:29:32,56.891848,214.67223,968.857244,97.975
1679, 10:29:32,56.731534,213.918087,965.380682,97.975
1680, 10:29:33,56.288786,211.554332,956.922585,97.975
1681, 10:29:33,55.913944,209.137192,949.723722,97.975
1682, 10:29:33,55.694089,207.724787,944.689631,97.975
1683, 10:29:33,55.60026,207.029474,942.65696,97.975
1684, 10:29:33,55.556384,206.860914,943.105824,97.975
1685, 10:29:33,55.554253,206.831321,942.786222,97.975
1686, 10:29:33,55.635062,207.132931,944.564631,97.975
1687, 10:29:33,55.712831,207.622869,946.140625,97.975
1688, 10:29:33,55.741872,207.722301,946.884943,97.975
1689, 10:29:33,55.751776,207.842921,947.196733,97.975
1690, 10:29:33,55.773122,207.954309,947.59517,97.975
1691, 10:29:33,55.854206,208.256747,948.492188,97.975
1692, 10:29:33,55.921165,208.591619,949.544034,97.975
1693, 10:29:33,55.984059,208.893466,950.786932,97.975
1694, 10:29:33,56.091264,209.373698,952.421165,97.975
1695, 10:29:33,56.144018,209.709044,953.609375,97.975
1696, 10:29:33,56.254814,210.301847,955.677557,97.975
1697, 10:29:33,56.286064,210.623343,956.12642,97.975
1698, 10:29:33,56.343553,211.068537,957.877131,97.975
1699, 10:29:33,56.445549,211.586648,959.4375,97.975
1700, 10:29:33,56.483744,211.947443,960.960227,97.975
1701, 10:29:33,56.597696,212.480114,963.019886,97.975
1702, 10:29:33,56.640349,212.809304,963.628551,97.975
1703, 10:29:33,56.72455,213.351681,965.442472,97.975
1704, 10:29:33,56.777107,213.773082,966.658381,97.975
1705, 10:29:33,56.780855,214.024384,967.356534,97.975
1706, 10:29:33,56.60247,213.17294,963.429688,97.975
1707, 10:29:33,56.176886,210.937855,955.138494,97.975
1708, 10:29:33,55.894965,208.889915,948.46733,97.975
1709, 10:29:33,55.704269,207.762902,945.256392,97.975
1710, 10:29:34,55.651121,207.414062,945.680398,97.975
1711, 10:29:34,55.634943,207.373106,945.494318,97.975
1712, 10:29:34,55.665049,207.550545,945.698153,97.975
1713, 10:29:34,55.765507,208.029001,947.949574,97.975
1714, 10:29:34,55.800702,208.279001,948.381392,97.975
1715, 10:29:34,55.85176,208.542969,949.453835,97.975
1716, 10:29:34,55.854088,208.633759,949.944602,97.975
1717, 10:29:34,55.885811,208.764441,949.830966,97.975
1718, 10:29:34,55.973682,209.104285,951.014915,97.975
1719, 10:29:34,56.029751,209.342566,952.737216,97.975
1720, 10:29:34,56.122199,209.843868,954.764915,97.975
1721, 10:29:34,56.171204,210.250829,955.257812,97.975
1722, 10:29:34,56.235559,210.665956,957.026989,97.975
1723, 10:29:34,56.321615,211.118726,958.240767,97.975
1724, 10:29:34,56.421796,211.595407,959.93608,97.975
1725, 10:29:34,56.482836,212.070668,961.296165,97.975
1726, 10:29:34,56.509391,212.347775,962.174716,97.975
1727, 10:29:34,56.581005,212.830611,963.307528,97.975
1728, 10:29:34,56.650529,213.303385,965.43679,97.975
1729, 10:29:34,56.718434,213.679451,966.005682,97.975
1730, 10:29:34,56.793324,214.154593,968.00142,97.975
1731, 10:29:34,56.800545,214.39027,968.779119,97.975
1732, 10:29:34,56.738005,214.224432,967.571023,97.975
1733, 10:29:34,56.358941,212.289891,959.793324,97.975
1734, 10:29:34,55.914497,209.608073,951.631392,97.975
1735, 10:29:34,55.594736,207.596709,944.648438,97.975
1736, 10:29:34,55.339686,206.57919,941.662642,97.975
1737, 10:29:34,55.284407,206.164773,940.5625,97.975
1738, 10:29:34,55.248935,205.82919,939.972301,97.975
1739, 10:29:34,55.284485,205.933475,939.805398,97.975
1740, 10:29:35,55.354167,206.302557,941.926136,97.975
1741, 10:29:35,55.417574,206.594105,942.783381,97.975
1742, 10:29:35,55.459083,206.780185,943.101562,97.975
1743, 10:29:35,55.476602,206.854048,944.149858,97.975
1744, 10:29:35,55.532631,207.0567,944.959517,97.975
1745, 10:29:35,55.578954,207.289418,945.284801,97.975
1746, 10:29:35,55.650568,207.677083,946.980114,97.975
1747, 10:29:35,55.726641,208.036458,947.880682,97.975
1748, 10:29:35,55.792377,208.440104,949.299716,97.975
1749, 10:29:35,55.894295,208.944721,951.585938,97.975
1750, 10:29:35,55.923217,209.3241,951.933239,97.975
1751, 10:29:35,56.030421,209.819484,953.442472,97.975
1752, 10:29:35,56.109888,210.247277,954.96946,97.975
1753, 10:29:35,56.148477,210.561908,956.158381,97.975
1754, 10:29:35,56.265507,211.03563,958.53196,97.975
1755, 10:29:35,56.282039,211.404356,958.0625,97.975
1756, 10:29:35,56.374921,211.865767,960.62358,97.975
1757, 10:29:35,56.426847,212.189631,960.992898,97.975
1758, 10:29:35,56.479956,212.677083,962.5,97.975
1759, 10:29:35,56.483231,212.942116,963.544744,97.975
1760, 10:29:35,56.236782,211.995857,959.242188,97.975
1761, 10:29:35,55.815933,209.648082,951.283381,97.975
1762, 10:29:35,55.326626,206.935369,941.643466,97.975
1763, 10:29:35,55.02979,205.29723,936.286222,97.975
1764, 10:29:35,54.896583,204.341264,933.306108,97.975
1765, 10:29:35,54.834833,204.047585,932.308239,97.975
1766, 10:29:35,54.824771,203.947325,932.308949,97.975
1767, 10:29:35,54.852352,204.084991,932.484375,97.975
1768, 10:29:35,54.978575,204.578243,934.997869,97.975
1769, 10:29:35,55.019571,204.8125,936.15625,97.975
1770, 10:29:36,55.067432,205.072562,937.171165,97.975
1771, 10:29:36,55.111742,205.25,937.775568,97.975
1772, 10:29:36,55.166903,205.497869,938.40483,97.975
1773, 10:29:36,55.258996,205.920928,939.860795,97.975
1774, 10:29:36,55.336214,206.264796,941.503551,97.975
1775, 10:29:36,55.483902,206.86553,943.818182,97.975
1776, 10:29:36,55.54944,207.188565,944.75071,97.975
1777, 10:29:36,55.65258,207.75367,946.959517,97.975
1778, 10:29:36,55.748343,208.240294,948.59517,97.975
1779, 10:29:36,55.845526,208.722656,950.077415,97.975
1780, 10:29:36,55.92369,209.233191,951.59517,97.975
1781, 10:29:36,56.009351,209.603338,952.492188,97.975
1782, 10:29:36,56.081045,210.201468,953.913352,97.975
1783, 10:29:36,56.155303,210.553504,954.90625,97.975
1784, 10:29:36,56.256234,211.099195,957.223011,97.975
1785, 10:29:36,56.297467,211.448272,957.976562,97.975
1786, 10:29:36,56.40842,212.036813,960.260653,97.975
1787, 10:29:36,56.467566,212.403172,961.245739,97.975
1788, 10:29:36,56.311987,211.845999,958.547585,97.975
1789, 10:29:36,55.933712,209.766098,951.022727,97.975
1790, 10:29:36,55.52328,207.384233,943.555398,97.975
1791, 10:29:36,55.298848,205.965672,939.416193,97.975
1792, 10:29:36,55.200718,205.510772,937.800426,97.975
1793, 10:29:36,55.18892,205.355114,936.897727,97.975
1794, 10:29:36,55.191761,205.44839,937.471591,97.975
1795, 10:29:36,55.275529,205.739938,939.519176,97.975
1796, 10:29:36,55.403449,206.318774,941.029119,97.975
1797, 10:29:36,55.418205,206.51598,942.320312,97.975
1798, 10:29:36,55.406289,206.702296,942.12571,97.975
1799, 10:29:36,55.458294,206.816643,942.442472,97.975
1800, 10:29:37,55.514599,206.986506,944.117898,97.725
1801, 10:29:37,55.598958,207.484848,945.133523,97.725
1802, 10:29:37,55.648556,207.692827,945.21946,97.725
1803, 10:29:37,55.768229,208.253078,948.336648,97.725
1804, 10:29:37,55.810527,208.651278,949.134943,97.725
1805, 10:29:37,55.927083,209.214489,951.511364,97.725
1806, 10:29:37,56.026002,209.717211,951.956676,97.725
1807, 10:29:37,56.05958,209.997869,952.90483,97.725
1808, 10:29:37,56.172546,210.439039,955.398438,97.725
1809, 10:29:37,56.206558,210.824692,956.050426,97.725
1810, 10:29:37,56.288589,211.31321,957.421875,97.725
1811, 10:29:37,56.359691,211.737216,959.005682,97.725
1812, 10:29:37,56.460069,212.252841,960.28125,97.725
1813, 10:29:37,56.520676,212.618845,961.227273,97.725
1814, 10:29:37,56.401081,212.311198,959.722301,97.725
1815, 10:29:37,56.054214,210.568892,953.285511,97.725
1816, 10:29:37,55.688486,208.323035,945.861506,97.725
1817, 10:29:37,55.432607,206.92661,941.786932,97.725
1818, 10:29:37,55.370699,206.501776,940.362926,97.725
1819, 10:29:37,55.337516,206.406487,940.169034,97.725
1820, 10:29:37,55.361229,206.480942,940.87429,97.725
1821, 10:29:37,55.403843,206.777344,941.902699,97.725
1822, 10:29:37,55.546086,207.340436,944.329545,97.725
1823, 10:29:37,55.574179,207.538826,944.923295,97.725
1824, 10:29:37,55.559462,207.650923,945.513494,97.725
1825, 10:29:37,55.612216,207.883523,946.497159,97.725
1826, 10:29:37,55.621843,208.050663,946.463068,97.725
1827, 10:29:37,55.722854,208.476799,948.133523,97.725
1828, 10:29:37,55.787484,208.767756,948.987216,97.725
1829, 10:29:37,55.824061,209.239228,949.495028,97.725
1830, 10:29:38,55.948351,209.727628,951.664062,97.725
1831, 10:29:38,55.997948,210.120739,952.622159,97.725
1832, 10:29:38,56.074495,210.599432,954.559659,97.725
1833, 10:29:38,56.118371,210.869318,955.221591,97.725
1834, 10:29:38,56.218908,211.383049,957.991477,97.725
1835, 10:29:38,56.275253,211.767045,958.482955,97.725
1836, 10:29:38,56.296362,212.095052,959.567472,97.725
1837, 10:29:38,56.397648,212.562263,960.947443,97.725
1838, 10:29:38,56.438644,212.882221,962.046165,97.725
1839, 10:29:38,56.487019,213.299124,962.740767,97.725
1840, 10:29:38,56.377486,213.025923,961.661222,97.725
1841, 10:29:38,56.005169,211.295336,954.439631,97.725
1842, 10:29:38,55.589055,208.756274,946.637074,97.725
1843, 10:29:38,55.263692,206.710582,939.962358,97.725
1844, 10:29:38,55.079309,205.687263,936.461648,97.725
1845, 10:29:38,54.966422,205.072562,934.691051,97.725
1846, 10:29:38,54.946733,204.889441,934.47017,97.725
1847, 10:29:38,54.955532,204.988755,934.577415,97.725
1848, 10:29:38,55.004735,205.215436,935.917614,97.725
1849, 10:29:38,55.040838,205.56617,937.058949,97.725
1850, 10:29:38,55.045652,205.626065,937.404119,97.725
1851, 10:29:38,55.064315,205.70857,937.413352,97.725
1852, 10:29:38,55.07848,205.778527,938.03196,97.725
1853, 10:29:38,55.143939,206.055871,938.764205,97.725
1854, 10:29:38,55.227154,206.352391,940.429688,97.725
1855, 10:29:38,55.267598,206.683475,940.396307,97.725
1856, 10:29:38,55.355311,207.1308,942.93821,97.725
1857, 10:29:38,55.377999,207.387311,943.542614,97.725
1858, 10:29:38,55.479167,207.827652,944.875,97.725
1859, 10:29:38,55.51961,208.127486,946.199574,97.725
1860, 10:29:39,55.549558,208.595644,947.210227,97.725
1861, 10:29:39,55.628196,208.965554,947.404119,97.725
1862, 10:29:39,55.635693,209.194484,948.408381,97.725
1863, 10:29:39,55.751263,209.657197,950.346591,97.725
1864, 10:29:39,55.79506,209.948627,951.455966,97.725
1865, 10:29:39,55.881037,210.40258,953.159801,97.725
1866, 10:29:39,55.92223,210.788944,954.003551,97.725
1867, 10:29:39,55.872001,210.78125,953.951705,97.725
1868, 10:29:39,55.601957,209.340436,948.338068,97.725
1869, 10:29:39,55.127446,206.643703,938.830966,97.725
1870, 10:29:39,54.742661,204.491714,930.731534,97.725
1871, 10:29:39,54.516335,203.2384,926.56108,97.725
1872, 10:29:39,54.395281,202.625237,924.737216,97.725
1873, 10:29:39,54.347893,202.339134,924.299006,97.725
1874, 10:29:39,54.318932,202.286813,923.800426,97.725
1875, 10:29:39,54.401476,202.657552,925.987926,97.725
1876, 10:29:39,54.479206,202.980232,927.057528,97.725
1877, 10:29:39,54.524503,203.154001,928.424006,97.725
1878, 10:29:39,54.541706,203.294626,928.014915,97.725
1879, 10:29:39,54.574455,203.453954,928.476562,97.725
1880, 10:29:39,54.632931,203.731179,929.691051,97.725
1881, 10:29:39,54.67227,203.976089,930.629261,97.725
1882, 10:29:39,54.821102,204.528646,932.651989,97.725
1883, 10:29:39,54.875434,204.844579,934.65554,97.725
1884, 10:29:39,54.975773,205.307055,935.65483,97.725
1885, 10:29:39,55.045139,205.732481,937.303977,97.725
1886, 10:29:39,55.127131,206.164062,938.643466,97.725
1887, 10:29:39,55.19843,206.553149,939.81321,97.725
1888, 10:29:39,55.222893,206.857126,940.165483,97.725
1889, 10:29:39,55.340515,207.383759,942.833807,97.725
1890, 10:29:40,55.37425,207.679096,943.870028,97.725
1891, 10:29:40,55.423098,208.1817,945.013494,97.725
1892, 10:29:40,55.529711,208.610914,946.517756,97.725
1893, 10:29:40,55.601207,209.023319,947.864347,97.725
1894, 10:29:40,55.650292,209.374171,949.301847,97.725
1895, 10:29:40,55.559659,209.141098,947.928977,97.725
1896, 10:29:40,55.231376,207.392045,940.497159,97.725
1897, 10:29:40,54.788392,204.975971,932.602983,97.725
1898, 10:29:40,54.501854,203.402344,927.317472,97.725
1899, 10:29:40,54.365057,202.702652,925.306818,97.725
1900, 10:29:40,54.253946,202.333807,923.377841,97.725
1901, 10:29:40,54.259785,202.328598,924.073864,97.725
1902, 10:29:40,54.289141,202.508049,924.477273,97.725
1903, 10:29:40,54.411419,202.985677,926.260653,97.725
1904, 10:29:40,54.407986,203.200284,926.971591,97.725
1905, 10:29:40,54.410669,203.283144,927.059659,97.725
1906, 10:29:40,54.421717,203.313447,927.238636,97.725
1907, 10:29:40,54.437263,203.430161,927.887784,97.725
1908, 10:29:40,54.499684,203.689394,929.352273,97.725
1909, 10:29:40,54.565538,203.957031,929.78196,97.725
1910, 10:29:40,54.650174,204.377604,931.492898,97.725
1911, 10:29:40,54.765112,204.804332,933.81179,97.725
1912, 10:29:40,54.801334,205.085346,933.966619,97.725
1913, 10:29:40,54.866793,205.452652,934.997159,97.725
1914, 10:29:40,54.916706,205.698509,936.236506,97.725
1915, 10:29:40,54.979088,206.085464,937.59517,97.725
1916, 10:29:40,55.079664,206.515507,939.06179,97.725
1917, 10:29:40,55.141059,206.949219,940.715199,97.725
1918, 10:29:40,55.243687,207.441761,942.744318,97.725
1919, 10:29:40,55.253512,207.743016,943.12571,97.725
1920, 10:29:41,55.342842,208.183357,943.87571,97.725
1921, 10:29:41,55.227549,207.810961,942.953835,97.725
1922, 10:29:41,54.792653,205.923887,934.645597,97.725
1923, 10:29:41,54.40696,203.70715,927.234375,97.725
1924, 10:29:41,54.188842,202.440578,922.964489,97.725
1925, 10:29:41,54.068063,201.803149,921.304688,97.725
1926, 10:29:41,54.029474,201.594579,921.269176,97.725
1927, 10:29:41,54.013021,201.592566,921.058239,97.725
1928, 10:29:41,54.097972,201.872514,922.260653,97.725
1929, 10:29:41,54.226326,202.414773,924.829545,97.725
1930, 10:29:41,54.256905,202.676491,925.047585,97.725
1931, 10:29:41,54.306384,202.937145,926.216619,97.725
1932, 10:29:41,54.332702,203.036932,927.073864,97.725
1933, 10:29:41,54.412958,203.326941,928.512784,97.725
1934, 10:29:41,54.521425,203.773556,929.533381,97.725
1935, 10:29:41,54.561829,204.103575,930.885653,97.725
1936, 10:29:41,54.644373,204.488045,932.098722,97.725
1937, 10:29:41,54.738557,205.101089,933.99858,97.725
1938, 10:29:41,54.880919,205.643229,936.901989,97.725
1939, 10:29:41,54.94476,206.022727,938.210227,97.725
1940, 10:29:41,55.04068,206.47242,939.607244,97.725
1941, 10:29:41,55.110874,206.939631,940.884943,97.725
1942, 10:29:41,55.153212,207.23331,941.700994,97.725
1943, 10:29:41,55.269413,207.764205,943.65625,97.725
1944, 10:29:41,55.329545,208.093277,944.565341,97.725
1945, 10:29:41,55.406566,208.673295,946.596591,97.725
1946, 10:29:41,55.469934,209.090199,947.759943,97.725
1947, 10:29:41,55.519255,209.36411,948.903409,97.725
1948, 10:29:41,55.338818,208.666548,945.428267,97.725
1949, 10:29:41,54.853535,206.358428,936.934659,97.725
1950, 10:29:42,54.438408,204.071851,928.570312,97.725
1951, 10:29:42,54.197167,202.485914,923.100142,97.725
1952, 10:29:42,54.068774,201.865885,922.149858,97.725
1953, 10:29:42,53.963739,201.3808,919.884233,97.725
1954, 10:29:42,53.976326,201.444129,920.088068,97.725
1955, 10:29:42,54.072009,201.802675,921.872869,97.725
1956, 10:29:42,54.137942,202.131629,923.40625,97.725
1957, 10:29:42,54.219342,202.491359,925.24929,97.725
1958, 10:29:42,54.22601,202.545455,925.315341,97.725
1959, 10:29:42,54.250552,202.659801,925.205966,97.725
1960, 10:29:42,54.321299,202.918442,926.68679,97.725
1961, 10:29:42,54.377683,203.187973,927.065341,97.725
1962, 10:29:42,54.507694,203.718158,930.198153,97.725
1963, 10:29:42,54.561592,204.070194,930.651278,97.725
1964, 10:29:42,54.675623,204.602154,932.860085,97.725
1965, 10:29:42,54.764126,205.070312,934.598011,97.725
1966, 10:29:42,54.84884,205.476918,935.71946,97.725
1967, 10:29:42,54.960819,206.088897,937.672585,97.725
1968, 10:29:42,55.011403,206.293205,938.776278,97.725
1969, 10:29:42,55.109178,206.795336,939.982244,97.725
1970, 10:29:42,55.198666,207.258404,941.485085,97.725
1971, 10:29:42,55.285709,207.670573,943.898438,97.725
1972, 10:29:42,55.38151,208.21508,945.259233,97.725
1973, 10:29:42,55.414654,208.434304,945.432528,97.725
1974, 10:29:42,55.344263,208.27616,944.736506,97.725
1975, 10:29:42,54.965633,206.31688,937.202415,97.725
1976, 10:29:42,54.543718,204.018939,928.377841,97.725
1977, 10:29:42,54.271938,202.340909,923.042614,97.725
1978, 10:29:42,54.146978,201.6933,921.068892,97.725
1979, 10:29:42,54.100971,201.452533,920.956676,97.725
1980, 10:29:43,54.097064,201.39536,920.713068,97.725
1981, 10:29:43,54.217487,201.830492,923.46875,97.725
1982, 10:29:43,54.303543,202.247751,924.239347,97.725
1983, 10:29:43,54.352312,202.502959,925.321733,97.725
1984, 10:29:43,54.350142,202.599195,924.546875,97.725
1985, 10:29:43,54.373658,202.675426,925.305398,97.725
1986, 10:29:43,54.498303,203.079664,926.989347,97.725
1987, 10:29:43,54.56396,203.368016,928.299006,97.725
1988, 10:29:43,54.69334,203.912405,930.284091,97.725
1989, 10:29:43,54.772885,204.330019,931.946023,97.725
1990, 10:29:43,54.888376,204.840791,933.987926,97.725
1991, 10:29:43,54.985046,205.273319,934.924006,97.725
1992, 10:29:43,55.051057,205.662642,936.140625,97.725
1993, 10:29:43,55.174874,206.177557,938.889205,97.725
1994, 10:29:43,55.251026,206.59446,939.575284,97.725
1995, 10:29:43,55.319366,206.974669,941.328125,97.725
1996, 10:29:43,55.42227,207.425426,943.896307,97.725
1997, 10:29:43,55.446654,207.785038,943.931818,97.725
1998, 10:29:43,55.554924,208.157197,945.201705,97.725
1999, 10:29:43,55.514639,208.09884,944.362926,97.725
2000, 10:29:43,55.20056,206.562855,938.399858,97.725
2001, 10:29:43,54.7878,204.137074,929.788352,97.725
2002, 10:29:43,54.431029,202.237216,923.201705,97.725
2003, 10:29:43,54.27762,201.356061,920.28125,97.725
2004, 10:29:43,54.170612,200.910038,919.454545,97.725
2005, 10:29:43,54.17511,200.90696,919.598011,97.725
2006, 10:29:43,54.22242,201.153527,920.100142,97.725
2007, 10:29:43,54.313092,201.604048,921.675426,97.725
2008, 10:29:43,54.426807,202.198035,924.784801,97.725
2009, 10:29:43,54.451823,202.439276,924.973722,97.725
2010, 10:29:44,54.504025,202.60393,925.651989,97.475
2011, 10:29:44,54.56905,202.79143,926.90483,97.475
2012, 10:29:44,54.642914,203.155066,927.674716,97.475
2013, 10:29:44,54.770636,203.690696,929.297585,97.475
2014, 10:29:44,54.832899,204.097183,931.227983,97.475
2015, 10:29:44,54.888258,204.643939,933.059659,97.475
2016, 10:29:44,55.006432,205.123461,934.965199,97.475
2017, 10:29:44,55.111585,205.638731,936.417614,97.475
2018, 10:29:44,55.181976,205.994792,937.190341,97.475
2019, 10:29:44,55.30599,206.553385,938.950994,97.475
2020, 10:29:44,55.388849,206.936435,941.03054,97.475
2021, 10:29:44,55.457781,207.299479,941.745739,97.475
2022, 10:29:44,55.518979,207.814039,944.335938,97.475
2023, 10:29:44,55.592803,208.144413,945.5625,97.475
2024, 10:29:44,55.485085,207.835464,943.12358,97.475
2025, 10:29:44,55.109099,205.923414,935.924006,97.475
2026, 10:29:44,54.651555,203.56688,926.889915,97.475
2027, 10:29:44,54.394492,202.165956,923.117898,97.475
2028, 10:29:44,54.2747,201.464725,921.004261,97.475
2029, 10:29:44,54.205848,201.270005,920.307528,97.475
2030, 10:29:44,54.18529,201.27036,919.681818,97.475
2031, 10:29:44,54.221473,201.436671,921.28196,97.475
2032, 10:29:44,54.345092,201.94768,923.058239,97.475
2033, 10:29:44,54.381274,202.292022,924.496449,97.475
2034, 10:29:44,54.458176,202.609375,925.627841,97.475
2035, 10:29:44,54.48761,202.777699,925.40767,97.475
2036, 10:29:44,54.547861,203.092448,926.497869,97.475
2037, 10:29:44,54.644334,203.540483,928.742898,97.475
2038, 10:29:44,54.699455,203.911813,930.095881,97.475
2039, 10:29:44,54.826941,204.481771,932.475852,97.475
2040, 10:29:45,54.893821,204.879853,933.196733,97.475
2041, 10:29:45,54.995344,205.341619,935.487216,97.475
2042, 10:29:45,55.110164,205.944602,937.565341,97.475
2043, 10:29:45,55.1686,206.314986,938.387074,97.475
2044, 10:29:45,55.265901,206.807173,941.138494,97.475
2045, 10:29:45,55.345881,207.240294,942.09233,97.475
2046, 10:29:45,55.395163,207.824692,942.422585,97.475
2047, 10:29:45,55.517558,208.299834,944.747869,97.475
2048, 10:29:45,55.51819,208.531368,945.716619,97.475
2049, 10:29:45,55.441367,208.235085,944.160511,97.475
2050, 10:29:45,55.030974,206.18099,936.418324,97.475
2051, 10:29:45,54.62717,203.959162,928.269176,97.475
2052, 10:29:45,54.416706,202.545099,924.421165,97.475
2053, 10:29:45,54.268742,201.937855,921.90554,97.475
2054, 10:29:45,54.236624,201.686671,921.097301,97.475
2055, 10:29:45,54.208531,201.727865,921.262074,97.475
2056, 10:29:45,54.313723,202.101207,923.527699,97.475
2057, 10:29:45,54.438408,202.633878,925.621449,97.475
2058, 10:29:45,54.490372,203.035511,926.789773,97.475
2059, 10:29:45,54.519255,203.262311,927.204545,97.475
2060, 10:29:45,54.546757,203.405895,927.705256,97.475
2061, 10:29:45,54.621173,203.746094,928.766335,97.475
2062, 10:29:45,54.709359,204.126184,930.257102,97.475
2063, 10:29:45,54.798374,204.626184,932.535511,97.475
2064, 10:29:45,54.895715,205.137429,934.12571,97.475
2065, 10:29:45,55.001499,205.636127,936.225852,97.475
2066, 10:29:45,55.076034,206.1817,937.689631,97.475
2067, 10:29:45,55.150253,206.515152,938.803977,97.475
2068, 10:29:45,55.292732,207.149029,940.928267,97.475
2069, 10:29:45,55.352825,207.603456,942.808239,97.475
2070, 10:29:46,55.393032,207.979759,943.881392,97.475
2071, 10:29:46,55.49199,208.437145,945.793324,97.475
2072, 10:29:46,55.537997,208.831795,946.68679,97.475
2073, 10:29:46,55.620462,209.294152,947.796165,97.475
2074, 10:29:46,55.659564,209.706439,948.673295,97.475
2075, 10:29:46,55.670889,209.916548,949.064631,97.475
2076, 10:29:46,55.420494,208.813092,944.495028,97.475
2077, 10:29:46,54.975773,206.326941,935.600852,97.475
2078, 10:29:46,54.656605,204.354759,929.301847,97.475
2079, 10:29:46,54.463305,203.252131,925.393466,97.475
2080, 10:29:46,54.400687,202.954427,924.683949,97.475
2081, 10:29:46,54.359414,202.818774,924.787642,97.475
2082, 10:29:46,54.415049,203.010298,925.081676,97.475
2083, 10:29:46,54.550347,203.597064,928.840909,97.475
2084, 10:29:46,54.568182,203.897254,928.909091,97.475
2085, 10:29:46,54.605429,204.132102,929.704545,97.475
2086, 10:29:46,54.625592,204.193063,929.740767,97.475
2087, 10:29:46,54.647372,204.328954,930.24929,97.475
2088, 10:29:46,54.713502,204.530658,931.490767,97.475
2089, 10:29:46,54.753117,204.83937,932.260653,97.475
2090, 10:29:46,54.831124,205.29072,933.934659,97.475
2091, 10:29:46,54.919626,205.708215,935.578835,97.475
2092, 10:29:46,55.0058,206.143348,937.06179,97.475
2093, 10:29:46,55.098603,206.607363,938.652699,97.475
2094, 10:29:46,55.119081,206.929688,940.100852,97.475
2095, 10:29:46,55.210819,207.33937,941.507812,97.475
2096, 10:29:46,55.248067,207.711056,942.064631,97.475
2097, 10:29:46,55.323706,208.161458,943.897727,97.475
2098, 10:29:46,55.411577,208.575639,945.644176,97.475
2099, 10:29:46,55.448785,208.931108,946.319602,97.475
2100, 10:29:47,55.471907,209.205019,946.420455,97.475
2101, 10:29:47,55.193419,207.985085,941.708807,97.475
2102, 10:29:47,54.811869,205.730114,932.954545,97.475
2103, 10:29:47,54.457978,203.638139,927.09304,97.475
2104, 10:29:47,54.257576,202.663826,923.227273,97.475
2105, 10:29:47,54.206913,202.349905,922.815341,97.475
2106, 10:29:47,54.169113,202.164536,922.365057,97.475
2107, 10:29:47,54.207426,202.37133,923.324574,97.475
2108, 10:29:47,54.262034,202.864228,924.702415,97.475
2109, 10:29:47,54.342093,203.187263,926.03267,97.475
2110, 10:29:47,54.362532,203.32339,927.017045,97.475
2111, 10:29:47,54.399227,203.45857,927.683239,97.475
2112, 10:29:47,54.446181,203.623106,928.306818,97.475
2113, 10:29:47,54.478141,203.798059,929.018466,97.475
2114, 10:29:47,54.574534,204.27758,930.87571,97.475
2115, 10:29:47,54.651199,204.638258,931.96875,97.475
2116, 10:29:47,54.732481,205.070076,933.213068,97.475
2117, 10:29:47,54.832307,205.475142,935.183239,97.475
2118, 10:29:47,54.87425,205.964607,936.59446,97.475
2119, 10:29:47,54.972814,206.414654,938.269176,97.475
2120, 10:29:47,55.003157,206.660038,939.002841,97.475
2121, 10:29:47,55.059975,207.116477,940.536932,97.475
2122, 10:29:47,55.129261,207.47017,941.232955,97.475
2123, 10:29:47,55.211095,207.915956,943.609375,97.475
2124, 10:29:47,55.282552,208.394531,945.034801,97.475
2125, 10:29:47,55.310961,208.675781,945.608665,97.475
2126, 10:29:47,55.241596,208.529711,943.854403,97.475
2127, 10:29:47,54.830098,206.475142,936.083807,97.475
2128, 10:29:47,54.35614,203.744555,927.129261,97.475
2129, 10:29:47,53.924598,201.507694,919.384233,97.475
2130, 10:29:48,53.678819,200.339489,915.139205,97.45
2131, 10:29:48,53.614189,199.850142,913.785511,97.45
2132, 10:29:48,53.505011,199.474787,912.34304,97.45
2133, 10:29:48,53.549795,199.573627,913.112216,97.45
2134, 10:29:48,53.6003,199.87429,914.737216,97.45
2135, 10:29:48,53.677636,200.291903,916.37358,97.45
2136, 10:29:48,53.701586,200.469342,916.756392,97.45
2137, 10:29:48,53.716027,200.497514,917.016335,97.45
2138, 10:29:48,53.752091,200.671993,917.617188,97.45
2139, 10:29:48,53.768111,200.895241,918.209517,97.45
2140, 10:29:48,53.890586,201.31617,920.033381,97.45
2141, 10:29:48,53.961214,201.657789,921.040483,97.45
2142, 10:29:48,54.072049,202.189631,923.231534,97.45
2143, 10:29:48,54.160314,202.654238,925.269176,97.45
2144, 10:29:48,54.237295,203.095881,926.569602,97.45
2145, 10:29:48,54.339607,203.608783,928.084517,97.45
2146, 10:29:48,54.37354,203.846473,928.482244,97.45
2147, 10:29:48,54.470526,204.370384,930.233665,97.45
2148, 10:29:48,54.521583,204.626776,931.246449,97.45
2149, 10:29:48,54.600537,205.071496,932.727273,97.45
2150, 10:29:48,54.703875,205.55812,934.840199,97.45
2151, 10:29:48,54.787169,205.907907,935.944602,97.45
2152, 10:29:48,54.870936,206.386482,937.639915,97.45
2153, 10:29:48,54.886719,206.565933,938.415483,97.45
2154, 10:29:48,54.688723,205.721473,934.425426,97.45
2155, 10:29:48,54.143387,202.995028,924.382102,97.45
2156, 10:29:48,53.644492,200.233665,914.572443,97.45
2157, 10:29:48,53.378038,198.658262,909.415483,97.45
2158, 10:29:48,53.206597,197.928977,906.96875,97.45
2159, 10:29:48,53.153449,197.726918,907.381392,97.45
2160, 10:29:49,53.134233,197.663116,906.879261,97.45
2161, 10:29:49,53.233467,198.120857,908.705256,97.45
2162, 10:29:49,53.365017,198.591738,910.922585,97.45
2163, 10:29:49,53.440499,198.973485,912.301136,97.45
2164, 10:29:49,53.451783,199.131866,912.84517,97.45
2165, 10:29:49,53.483033,199.310843,913.356534,97.45
2166, 10:29:49,53.591461,199.702415,914.586648,97.45
2167, 10:29:49,53.656921,200.039891,915.838778,97.45
2168, 10:29:49,53.772846,200.575166,917.354403,97.45
2169, 10:29:49,53.909051,201.06759,920.090199,97.45
2170, 10:29:49,53.953559,201.578954,920.757812,97.45
2171, 10:29:49,54.118568,202.198509,923.895597,97.45
2172, 10:29:49,54.187934,202.617306,924.740767,97.45
2173, 10:29:49,54.292022,203.021899,926.568892,97.45
2174, 10:29:49,54.37137,203.423769,928.096591,97.45
2175, 10:29:49,54.460148,203.948627,929.413352,97.45
2176, 10:29:49,54.553188,204.448864,930.823864,97.45
2177, 10:29:49,54.64465,204.831203,932.518466,97.45
2178, 10:29:49,54.693616,205.243253,933.263494,97.45
2179, 10:29:49,54.798177,205.745384,935.892756,97.45
2180, 10:29:49,54.900805,206.307055,937.481534,97.45
2181, 10:29:49,54.932726,206.59884,938.476562,97.45
2182, 10:29:49,54.771701,205.845881,936.018466,97.45
2183, 10:29:49,54.301255,203.394295,925.882812,97.45
2184, 10:29:49,53.845368,200.974077,917.710938,97.45
2185, 10:29:49,53.609454,199.563684,913.083807,97.45
2186, 10:29:49,53.496291,199.044271,911.84233,97.45
2187, 10:29:49,53.472656,199.045336,911.916903,97.45
2188, 10:29:49,53.492306,199.142637,911.841619,97.45
2189, 10:29:49,53.644571,199.724905,914.715909,97.45
2190, 10:29:50,53.768505,200.303149,917.233665,97.45
2191, 10:29:50,53.799045,200.500355,917.203835,97.45
2192, 10:29:50,53.834912,200.741004,917.875,97.45
2193, 10:29:50,53.859257,200.761955,918.341619,97.45
2194, 10:29:50,53.932726,201.030185,919.584517,97.45
2195, 10:29:50,54.009825,201.386009,920.972301,97.45
2196, 10:29:50,54.117819,201.935369,922.96733,97.45
2197, 10:29:50,54.215909,202.313447,923.951705,97.45
2198, 10:29:50,54.291114,202.776278,925.953125,97.45
2199, 10:29:50,54.413155,203.328007,927.987926,97.45
2200, 10:29:50,54.475892,203.650687,928.651278,97.45
2201, 10:29:50,54.533183,204.178622,929.87571,97.45
2202, 10:29:50,54.630721,204.509588,931.472301,97.45
2203, 10:29:50,54.728969,204.960109,933.064631,97.45
2204, 10:29:50,54.839094,205.400331,935.09233,97.45
2205, 10:29:50,54.876697,205.773082,936.135653,97.45
2206, 10:29:50,54.970644,206.231534,938.178977,97.45
2207, 10:29:50,54.912169,206.076941,937.24858,97.45
2208, 10:29:50,54.580966,204.449337,930.463068,97.45
2209, 10:29:50,54.118411,201.920099,921.790483,97.45
2210, 10:29:50,53.73982,199.89465,914.15767,97.45
2211, 10:29:50,53.57414,199.046757,911.797585,97.45
2212, 10:29:50,53.475734,198.756274,911.253551,97.45
2213, 10:29:50,53.497514,198.835346,911.392756,97.45
2214, 10:29:50,53.592487,199.137311,912.721591,97.45
2215, 10:29:50,53.71875,199.768466,914.994318,97.45
2216, 10:29:50,53.78417,200.09446,916.84233,97.45
2217, 10:29:50,53.810133,200.274148,917.363636,97.45
2218, 10:29:50,53.848288,200.376776,917.070312,97.45
2219, 10:29:50,53.886443,200.51018,917.262784,97.45
2220, 10:29:51,54.001657,200.935369,919.538352,97.45
2221, 10:29:51,54.077139,201.333215,921.070312,97.45
2222, 10:29:51,54.154474,201.836529,922.882812,97.45
2223, 10:29:51,54.27111,202.317116,924.615767,97.45
2224, 10:29:51,54.372475,202.744318,926.363636,97.45
2225, 10:29:51,54.462397,203.235677,928.229403,97.45
2226, 10:29:51,54.501539,203.495147,928.618608,97.45
