frame_index,timestamp,R,G,B,average_SpO2
0, 14:07:56,64.617306,179.929096,940.392756,96.45
1, 14:07:56,64.721907,180.509943,943.826705,96.45
2, 14:07:56,64.918245,181.120739,946.40625,96.45
3, 14:07:56,65.106574,181.704664,948.980824,96.45
4, 14:07:56,65.218277,182.3125,949.741477,96.45
5, 14:07:56,65.287129,182.924361,951.040483,96.45
6, 14:07:56,65.394295,183.528527,954.40696,96.45
7, 14:07:56,65.515309,184.201231,954.735795,96.45
8, 14:07:56,65.607915,184.885298,957.087358,96.45
9, 14:07:56,65.71946,185.539536,959.973011,96.45
10, 14:07:56,65.836411,186.296165,961.31392,96.45
11, 14:07:56,65.932923,186.947443,963.227273,96.45
12, 14:07:56,66.018308,187.660038,965.667614,96.45
13, 14:07:56,66.121883,188.331084,967.358665,96.45
14, 14:07:56,66.247514,189.14169,970.443892,96.45
15, 14:07:56,66.252999,189.716856,970.951705,96.45
16, 14:07:56,66.339844,190.444721,973.122869,96.45
17, 14:07:56,66.495699,191.263139,977.041903,96.45
18, 14:07:56,66.541588,191.873816,978.163352,96.45
19, 14:07:56,66.638218,192.485204,980.888494,96.45
20, 14:07:56,66.194563,190.839844,973.15554,96.45
21, 14:07:56,65.508444,187.236506,961.205966,96.45
22, 14:07:56,65.18971,184.594223,953.534091,96.45
23, 14:07:56,65.115491,183.766927,951.340199,96.45
24, 14:07:56,64.9884,182.925426,949.401989,96.45
25, 14:07:56,64.772412,181.793561,945.534091,96.45
26, 14:07:56,64.660156,180.890033,943.385653,96.45
27, 14:07:56,64.697917,180.994792,944.502841,96.45
28, 14:07:56,64.985598,182.238991,949.206676,96.45
29, 14:07:56,65.033262,182.590317,949.672585,96.45
30, 14:07:57,64.99708,182.56321,949.705966,96.45
31, 14:07:57,64.740609,181.808002,943.603693,96.45
32, 14:07:57,64.88009,182.312618,944.747869,96.45
33, 14:07:57,65.008878,182.958925,947.40696,96.45
34, 14:07:57,65.079901,183.41205,949.108665,96.45
35, 14:07:57,65.253512,184.280895,951.034801,96.45
36, 14:07:57,65.336529,184.840554,952.977983,96.45
37, 14:07:57,65.400489,185.333097,953.919034,96.45
38, 14:07:57,65.472301,185.873816,956.211648,96.45
39, 14:07:57,65.570273,186.357126,957.398438,96.45
40, 14:07:57,65.649069,186.921165,959.632102,96.45
41, 14:07:57,65.7006,187.506155,961.133523,96.45
42, 14:07:57,65.787247,188.246686,963.267045,96.45
43, 14:07:57,65.793758,188.773793,964.210938,96.45
44, 14:07:57,65.919468,189.460582,966.925426,96.45
45, 14:07:57,65.954861,189.975852,968.627841,96.45
46, 14:07:57,66.042574,190.488045,969.820312,96.45
47, 14:07:57,66.166154,191.084635,971.845881,96.45
48, 14:07:57,66.231574,191.554569,973.227983,96.45
49, 14:07:57,66.323666,192.095526,975.473722,96.45
50, 14:07:57,66.320234,192.392045,976.085227,96.45
51, 14:07:57,65.768229,190.176373,967.15483,96.45
52, 14:07:57,65.114426,186.393939,954.769886,96.45
53, 14:07:57,64.778015,183.824574,947.580966,96.45
54, 14:07:57,64.727628,182.757694,944.977983,96.45
55, 14:07:57,64.552241,181.721117,942.053977,96.45
56, 14:07:57,64.346473,180.406368,939.256392,96.45
57, 14:07:57,64.187105,179.474195,936.183239,96.45
58, 14:07:57,64.347459,179.89465,938.546875,96.45
59, 14:07:57,64.557962,180.787997,941.512074,96.45
60, 14:07:58,64.492937,180.739228,940.878551,96.45
61, 14:07:58,64.483704,180.610677,940.053267,96.45
62, 14:07:58,64.481258,180.641217,940.537642,96.45
63, 14:07:58,64.603614,181.100616,941.68608,96.45
64, 14:07:58,64.757181,181.754972,943.862216,96.45
65, 14:07:58,64.857205,182.29652,945.537642,96.45
66, 14:07:58,64.982363,182.821615,948.256392,96.45
67, 14:07:58,65.024779,183.273674,947.894886,96.45
68, 14:07:58,65.12354,183.775923,950.558949,96.45
69, 14:07:58,65.205492,184.204545,951.329545,96.45
70, 14:07:58,65.290009,184.729403,953.68892,96.45
71, 14:07:58,65.381432,185.167969,955.064631,96.45
72, 14:07:58,65.453914,185.624053,956.798295,96.45
73, 14:07:58,65.566682,186.434896,959.038352,96.45
74, 14:07:58,65.648872,187.055043,961.230824,96.45
75, 14:07:58,65.707071,187.56108,962.826705,96.45
76, 14:07:58,65.633286,187.625237,961.850852,96.45
77, 14:07:58,65.029514,184.776042,951.099432,96.45
78, 14:07:58,64.389205,181.053504,940.752841,96.45
79, 14:07:58,64.061829,178.877249,934.121449,96.45
80, 14:07:58,63.940223,177.886955,932.230824,96.45
81, 14:07:58,63.748264,176.673769,927.823864,96.45
82, 14:07:58,63.563802,175.400687,924.68821,96.45
83, 14:07:58,63.445707,174.648201,921.383523,96.45
84, 14:07:58,63.659288,175.383641,925.767756,96.45
85, 14:07:58,63.925505,176.672348,929.855114,96.45
86, 14:07:58,63.889875,176.818774,929.327415,96.45
87, 14:07:58,63.905421,176.88151,929.493608,96.45
88, 14:07:58,63.973564,177.213778,930.987216,96.45
89, 14:07:58,64.139954,177.952533,934.68679,96.45
90, 14:07:59,64.261482,178.601207,936.101562,96.725
91, 14:07:59,64.376776,179.406368,938.310369,96.725
92, 14:07:59,64.523911,180.086884,941.396307,96.725
93, 14:07:59,64.576665,180.659446,941.362926,96.725
94, 14:07:59,64.730863,181.297704,944.698153,96.725
95, 14:07:59,64.811474,181.812263,945.399148,96.725
96, 14:07:59,64.946259,182.512547,947.65767,96.725
97, 14:07:59,65.062027,183.147727,949.571023,96.725
98, 14:07:59,65.144295,183.752959,951.443892,96.725
99, 14:07:59,65.33361,184.580374,953.894176,96.725
100, 14:07:59,65.404317,185.118253,955.888494,96.725
101, 14:07:59,65.533026,185.90258,958.324574,96.725
102, 14:07:59,65.596117,186.546875,959.821023,96.725
103, 14:07:59,65.645912,187.258759,961.839489,96.725
104, 14:07:59,65.72968,187.983073,963.895597,96.725
105, 14:07:59,65.823193,188.862571,966.513494,96.725
106, 14:07:59,65.914812,189.520478,967.989347,96.725
107, 14:07:59,65.876223,189.603101,967.575994,96.725
108, 14:07:59,65.237374,186.918087,957.863636,96.725
109, 14:07:59,64.528054,182.616359,943.493608,96.725
110, 14:07:59,64.29072,180.431345,939.096591,96.725
111, 14:07:59,64.203796,179.779474,936.693892,96.725
112, 14:07:59,64.065183,178.700284,934.190341,96.725
113, 14:07:59,63.86336,177.647846,929.245028,96.725
114, 14:07:59,63.721512,176.693419,927.25142,96.725
115, 14:07:59,63.875039,177.181463,929.679688,96.725
116, 14:07:59,64.181976,178.632102,935.565341,96.725
117, 14:07:59,64.305753,179.495857,937.475142,96.725
118, 14:07:59,64.307213,179.593987,937.049716,96.725
119, 14:07:59,64.388336,179.952888,938.02983,96.725
120, 14:08:00,64.559935,180.791548,941.036222,96.725
121, 14:08:00,64.708965,181.58428,943.065341,96.725
122, 14:08:00,64.875237,182.523438,946.09233,96.725
123, 14:08:00,65.011245,183.296046,948.506392,96.725
124, 14:08:00,65.096591,184.09233,950.289773,96.725
125, 14:08:00,65.27545,184.91063,952.62571,96.725
126, 14:08:00,65.358586,185.650568,954.926136,96.725
127, 14:08:00,65.470368,186.613281,957.881392,96.725
128, 14:08:00,65.51164,187.282079,959.485085,96.725
129, 14:08:00,65.679096,188.261245,963.081676,96.725
130, 14:08:00,65.750355,189.115649,964.81321,96.725
131, 14:08:00,65.86991,189.904238,967.365767,96.725
132, 14:08:00,65.996252,190.754853,970.083097,96.725
133, 14:08:00,66.083452,191.367779,971.252131,96.725
134, 14:08:00,66.221828,192.240294,974.643466,96.725
135, 14:08:00,66.331203,193.001184,976.850852,96.725
136, 14:08:00,66.489702,193.864938,979.672585,96.725
137, 14:08:00,66.565814,194.627367,981.704545,96.725
138, 14:08:00,66.365372,194.083333,979.15625,96.725
139, 14:08:00,65.68825,191.187855,968.212358,96.725
140, 14:08:00,65.226602,188.739938,960.269176,96.725
141, 14:08:00,65.158223,188.171165,958.990057,96.725
142, 14:08:00,65.089923,187.65187,957.087358,96.725
143, 14:08:00,64.948745,186.866122,954.799006,96.725
144, 14:08:00,64.755603,186.0116,951.288352,96.725
145, 14:08:00,64.732086,185.85535,950.384943,96.725
146, 14:08:00,64.997633,186.868845,955.784091,96.725
147, 14:08:00,65.165562,187.787879,958.457386,96.725
148, 14:08:00,65.156132,187.953243,958.415483,96.725
149, 14:08:00,65.159012,188.008759,958.50142,96.725
150, 14:08:01,65.199771,188.355469,959.476562,96.725
151, 14:08:01,65.32848,189.021425,961.926847,96.725
152, 14:08:01,65.44764,189.700402,963.850142,96.725
153, 14:08:01,65.550032,190.364583,966.286932,96.725
154, 14:08:01,65.671757,191.018111,968.122869,96.725
155, 14:08:01,65.694326,191.495857,968.773438,96.725
156, 14:08:01,65.861585,192.148674,971.713068,96.725
157, 14:08:01,65.881037,192.540838,972.100142,96.725
158, 14:08:01,65.990925,193.198153,974.867898,96.725
159, 14:08:01,66.095762,193.813329,976.897017,96.725
160, 14:08:01,66.161261,194.291548,978.095881,96.725
161, 14:08:01,66.240964,194.862571,979.760653,96.725
162, 14:08:01,66.321772,195.613045,982.004972,96.725
163, 14:08:01,66.427675,196.330848,984.740767,96.725
164, 14:08:01,66.479916,196.929332,986.641335,96.725
165, 14:08:01,66.548177,197.51527,987.958097,96.725
166, 14:08:01,66.545652,197.729759,988.915483,96.725
167, 14:08:01,66.059462,195.843632,980.939631,96.725
168, 14:08:01,65.557844,192.831203,971.308239,96.725
169, 14:08:01,65.371409,191.389323,966.78196,96.725
170, 14:08:01,65.355114,190.889205,965.372159,96.725
171, 14:08:01,65.228378,190.191288,963.144886,96.725
172, 14:08:01,65.098327,189.345644,960.917614,96.725
173, 14:08:01,65.024345,188.818774,959.290483,96.725
174, 14:08:01,65.25655,189.586884,962.93892,96.725
175, 14:08:01,65.38443,190.23473,964.956676,96.725
176, 14:08:01,65.28196,189.928267,964.026989,96.725
177, 14:08:01,65.269847,189.811435,963.090199,96.725
178, 14:08:01,65.29944,189.858073,964.03196,96.725
179, 14:08:01,65.407749,190.314631,965.640625,96.725
180, 14:08:02,65.503157,190.806818,967.147727,96.725
181, 14:08:02,65.580611,191.236151,968.695312,96.725
182, 14:08:02,65.682686,191.847301,971.041193,96.725
183, 14:08:02,65.724274,192.11411,971.482955,96.725
184, 14:08:02,65.788865,192.507221,972.972301,96.725
185, 14:08:02,65.859651,192.895241,973.865767,96.725
186, 14:08:02,65.841067,193.280777,973.610795,96.725
187, 14:08:02,65.950521,193.702415,975.808239,96.725
188, 14:08:02,66.032473,194.166548,977.823153,96.725
189, 14:08:02,66.155737,194.924124,980.379972,96.725
190, 14:08:02,66.205571,195.291903,981.416193,96.725
191, 14:08:02,66.298808,195.832978,981.838778,96.725
192, 14:08:02,66.196338,195.603693,981.730114,96.725
193, 14:08:02,65.609848,192.824337,972.073864,96.725
194, 14:08:02,65.049676,189.552438,961.402699,96.725
195, 14:08:02,64.822759,187.992424,956.963068,96.725
196, 14:08:02,64.75146,187.216974,954.861506,96.725
197, 14:08:02,64.528804,185.992188,950.734375,96.725
198, 14:08:02,64.35468,184.787997,947.182528,96.725
199, 14:08:02,64.29068,184.070431,945.06179,96.725
200, 14:08:02,64.493371,184.663826,948.676136,96.725
201, 14:08:02,64.665838,185.326586,950.877131,96.725
202, 14:08:02,64.589923,185.093158,949.450994,96.725
203, 14:08:02,64.584399,184.897135,949.101562,96.725
204, 14:08:02,64.598051,185.037524,949.318892,96.725
205, 14:08:02,64.766256,185.629261,951.426136,96.725
206, 14:08:02,64.861387,186.167969,953.666903,96.725
207, 14:08:02,64.932726,186.665601,955.050426,96.725
208, 14:08:02,65.037011,187.138021,956.680398,96.725
209, 14:08:02,65.052202,187.455848,957.570312,96.725
210, 14:08:03,65.17298,187.935133,959.335227,96.95
211, 14:08:03,65.294863,188.457978,961.310369,96.95
212, 14:08:03,65.350063,188.817235,962.463068,96.95
213, 14:08:03,65.474787,189.409209,964.361506,96.95
214, 14:08:03,65.54431,189.875355,966.263494,96.95
215, 14:08:03,65.655658,190.490175,968.648438,96.95
216, 14:08:03,65.715593,190.820076,969.423295,96.95
217, 14:08:03,65.78488,191.522254,970.133523,96.95
218, 14:08:03,65.950008,192.178622,973.389915,96.95
219, 14:08:03,66.009706,192.588305,974.81108,96.95
220, 14:08:03,65.998185,192.737926,974.848011,96.95
221, 14:08:03,65.361545,190.15992,964.46804,96.95
222, 14:08:03,64.592014,186.128788,951.380682,96.95
223, 14:08:03,64.298177,183.73402,945.233665,96.95
224, 14:08:03,64.246962,182.464844,942.604403,96.95
225, 14:08:03,64.10247,181.23544,938.40696,96.95
226, 14:08:03,63.840712,179.573272,934.502131,96.95
227, 14:08:03,63.665049,178.511719,930.345881,96.95
228, 14:08:03,63.732165,178.580019,932.065341,96.95
229, 14:08:03,64.060843,179.823627,937.21733,96.95
230, 14:08:03,64.173729,180.372041,938.470881,96.95
231, 14:08:03,64.104719,180.215199,937.390625,96.95
232, 14:08:03,64.207307,180.396544,938.634943,96.95
233, 14:08:03,64.336253,180.982244,940.066761,96.95
234, 14:08:03,64.502841,181.788352,943.318182,96.95
235, 14:08:03,64.625671,182.459399,945.145597,96.95
236, 14:08:03,64.735006,183.041193,946.727273,96.95
237, 14:08:03,64.852036,183.609138,948.509943,96.95
238, 14:08:03,64.966027,184.207741,950.237926,96.95
239, 14:08:03,65.023122,184.874763,952.106534,96.95
240, 14:08:04,65.102707,185.347893,954.15554,96.95
241, 14:08:04,65.177083,186.15625,956.011364,96.95
242, 14:08:04,65.232402,186.754972,957.683239,96.95
243, 14:08:04,65.343277,187.494792,959.25,96.95
244, 14:08:04,65.459162,188.239228,962.389915,96.95
245, 14:08:04,65.514362,188.6875,963.96875,96.95
246, 14:08:04,65.638652,189.368608,965.558239,96.95
247, 14:08:04,65.728535,189.937027,966.852273,96.95
248, 14:08:04,65.794231,190.450402,968.551847,96.95
249, 14:08:04,65.935764,191.166193,971.392045,96.95
250, 14:08:04,66.014165,191.792969,973.641335,96.95
251, 14:08:04,65.946733,191.667377,972.106534,96.95
252, 14:08:04,65.129735,188.210701,959.553977,96.95
253, 14:08:04,64.42081,183.916785,946.648438,96.95
254, 14:08:04,64.1192,181.384115,939.915483,96.95
255, 14:08:04,64.082386,180.469223,937.786932,96.95
256, 14:08:04,63.888258,179.374527,934.494318,96.95
257, 14:08:04,63.628117,177.911813,928.695312,96.95
258, 14:08:04,63.50146,176.996804,927.051847,96.95
259, 14:08:04,63.633917,177.435369,929.370739,96.95
260, 14:08:04,64.020676,178.989583,934.84375,96.95
261, 14:08:04,64.042653,179.332505,934.986506,96.95
262, 14:08:04,64.040167,179.301847,934.714489,96.95
263, 14:08:04,64.105429,179.594697,935.625,96.95
264, 14:08:04,64.264205,180.214962,938.619318,96.95
265, 14:08:04,64.447562,180.979995,941.524858,96.95
266, 14:08:04,64.538076,181.589607,942.350142,96.95
267, 14:08:04,64.692116,182.414418,944.455256,96.95
268, 14:08:04,64.79289,182.998461,946.757812,96.95
269, 14:08:04,64.9317,183.674361,948.617188,96.95
270, 14:08:05,65.003354,184.22313,950.764915,96.7
271, 14:08:05,65.106376,184.8125,951.568182,96.7
272, 14:08:05,65.215002,185.55741,954.90696,96.7
273, 14:08:05,65.225024,186.043442,955.385653,96.7
274, 14:08:05,65.359454,186.961411,958.308239,96.7
275, 14:08:05,65.417456,187.602273,960.855114,96.7
276, 14:08:05,65.530777,188.294508,961.957386,96.7
277, 14:08:05,65.621804,188.874882,963.928267,96.7
278, 14:08:05,65.678583,189.325047,965.40767,96.7
279, 14:08:05,65.771583,190.114465,967.354403,96.7
280, 14:08:05,65.927557,190.710227,969.920455,96.7
281, 14:08:05,66.006234,191.340672,972.390625,96.7
282, 14:08:05,66.023161,191.591264,972.84304,96.7
283, 14:08:05,65.410945,189.171283,963.252131,96.7
284, 14:08:05,64.543718,184.391572,948.5,96.7
285, 14:08:05,64.108349,181.183475,937.65483,96.7
286, 14:08:05,64.066367,180.183002,937.211648,96.7
287, 14:08:05,63.926649,179.346709,934.477983,96.7
288, 14:08:05,63.76089,178.200758,930.599432,96.7
289, 14:08:05,63.619042,177.329664,927.53196,96.7
290, 14:08:05,63.822601,177.871212,931.352273,96.7
291, 14:08:05,64.113084,179.252131,936.663352,96.7
292, 14:08:05,64.103969,179.417022,936.252131,96.7
293, 14:08:05,64.117385,179.421757,934.990767,96.7
294, 14:08:05,64.133247,179.47313,935.392756,96.7
295, 14:08:05,64.282513,180.143466,938.329545,96.7
296, 14:08:05,64.419981,180.758049,939.985795,96.7
297, 14:08:05,64.60831,181.673887,943.276278,96.7
298, 14:08:05,64.745186,182.419744,944.680398,96.7
299, 14:08:05,64.815262,182.951941,946.600852,96.7
300, 14:08:06,64.870107,183.568182,948.102273,96.7
301, 14:08:06,64.979088,183.994081,948.96733,96.7
302, 14:08:06,65.091383,184.526042,951.383523,96.7
303, 14:08:06,65.152659,185.255327,953.287642,96.7
304, 14:08:06,65.233704,185.821851,955.277699,96.7
305, 14:08:06,65.307252,186.637666,957.840199,96.7
306, 14:08:06,65.454585,187.196141,959.966619,96.7
307, 14:08:06,65.555122,188.122751,961.818892,96.7
308, 14:08:06,65.621607,188.619555,963.18892,96.7
309, 14:08:06,65.549164,188.484138,962.46733,96.7
310, 14:08:06,64.790207,185.039654,950.462358,96.7
311, 14:08:06,64.034091,180.551136,936.357955,96.7
312, 14:08:06,63.796441,178.393584,930.512074,96.7
313, 14:08:06,63.734375,177.636837,929.096591,96.7
314, 14:08:06,63.623422,176.874527,926.75,96.7
315, 14:08:06,63.454072,175.85322,923.616477,96.7
316, 14:08:06,63.442038,175.445904,923.362926,96.7
317, 14:08:06,63.74929,176.629498,928.021307,96.7
318, 14:08:06,63.931937,177.657552,931.237926,96.7
319, 14:08:06,63.922783,177.772609,931.629972,96.7
320, 14:08:06,63.931345,177.770833,931.002841,96.7
321, 14:08:06,64.049795,178.181581,932.558239,96.7
322, 14:08:06,64.208018,179.059186,935.267045,96.7
323, 14:08:06,64.371252,179.892164,938.091619,96.7
324, 14:08:06,64.521741,180.742779,940.206676,96.7
325, 14:08:06,64.628433,181.34884,942.252131,96.7
326, 14:08:06,64.738952,181.966383,944.772727,96.7
327, 14:08:06,64.852865,182.708215,946.010653,96.7
328, 14:08:06,64.959557,183.246567,948.257812,96.7
329, 14:08:06,65.074021,183.919034,949.960227,96.7
330, 14:08:07,65.192511,184.44117,951.763494,96.9
331, 14:08:07,65.30883,185.261719,954.004972,96.9
332, 14:08:07,65.417614,185.925663,956.227273,96.9
333, 14:08:07,65.507694,186.523082,958.334517,96.9
334, 14:08:07,65.548493,187.359493,960.395597,96.9
335, 14:08:07,65.640191,188.131274,962.708097,96.9
336, 14:08:07,65.763889,188.914773,965.167614,96.9
337, 14:08:07,65.792377,189.277699,965.504261,96.9
338, 14:08:07,65.365096,187.666785,958.639915,96.9
339, 14:08:07,64.341856,182.374527,942.286932,96.9
340, 14:08:07,63.758089,178.303149,930.665483,96.9
341, 14:08:07,63.634154,176.76089,926.352273,96.9
342, 14:08:07,63.506037,175.939512,923.409801,96.9
343, 14:08:07,63.328559,174.799124,920.300426,96.9
344, 14:08:07,63.112098,173.501065,916.012074,96.9
345, 14:08:07,63.083688,173.062618,914.321733,96.9
346, 14:08:07,63.443063,174.374171,920.208097,96.9
347, 14:08:07,63.657039,175.568655,924.585227,96.9
348, 14:08:07,63.676136,175.740057,924.963068,96.9
349, 14:08:07,63.692551,175.788826,924.838068,96.9
350, 14:08:07,63.795533,176.347301,926.973011,96.9
351, 14:08:07,63.988952,177.15483,930.21875,96.9
352, 14:08:07,64.129814,178.005919,932.68608,96.9
353, 14:08:07,64.273556,178.752959,933.932528,96.9
354, 14:08:07,64.358152,179.365175,935.401278,96.9
355, 14:08:07,64.51965,180.170691,939.353693,96.9
356, 14:08:07,64.627723,180.780421,940.117188,96.9
357, 14:08:07,64.738281,181.429332,942.891335,96.9
358, 14:08:07,64.878433,182.158973,945.090199,96.9
359, 14:08:07,64.992148,182.77616,946.418324,96.9
360, 14:08:08,65.116438,183.541548,947.729403,96.9
361, 14:08:08,65.20932,184.118963,950.276278,96.9
362, 14:08:08,65.326468,184.816998,952.680398,96.9
363, 14:08:08,65.459083,185.552438,954.919744,96.9
364, 14:08:08,65.577494,186.287405,956.988636,96.9
365, 14:08:08,65.715041,187.104403,959.356534,96.9
366, 14:08:08,65.676176,187.70277,960.696733,96.9
367, 14:08:08,65.230982,186.001184,954.240057,96.9
368, 14:08:08,64.262113,180.714844,936.823153,96.9
369, 14:08:08,63.674242,176.951231,926.409091,96.9
370, 14:08:08,63.570352,175.571851,922.283381,96.9
371, 14:08:08,63.479798,174.784091,918.630682,96.9
372, 14:08:08,63.250592,173.537287,916.144176,96.9
373, 14:08:08,63.063131,172.257576,911.303977,96.9
374, 14:08:08,63.103614,172.11482,911.72017,96.9
375, 14:08:08,63.43896,173.447088,916.725142,96.9
376, 14:08:08,63.70202,174.783617,921.397727,96.9
377, 14:08:08,63.696496,174.855114,920.78125,96.9
378, 14:08:08,63.751854,175.006984,921.573153,96.9
379, 14:08:08,63.876223,175.486151,922.877131,96.9
380, 14:08:08,64.021583,176.263613,926.419744,96.9
381, 14:08:08,64.242937,177.231179,928.764915,96.9
382, 14:08:08,64.380327,178.042495,931.354403,96.9
383, 14:08:08,64.504025,178.819366,933.40483,96.9
384, 14:08:08,64.599195,179.497869,935.25142,96.9
385, 14:08:08,64.741793,180.219697,937.144886,96.9
386, 14:08:08,64.871252,180.944721,939.835938,96.9
387, 14:08:08,64.928819,181.510417,941.096591,96.9
388, 14:08:08,65.128985,182.43099,943.696733,96.9
389, 14:08:08,65.236624,183.111861,945.90696,96.9
390, 14:08:09,65.354719,183.812263,948.794034,96.9
391, 14:08:09,65.506195,184.55741,950.733665,96.9
392, 14:08:09,65.616832,185.162524,953.372869,96.9
393, 14:08:09,65.761521,185.992898,955.130682,96.9
394, 14:08:09,65.895478,186.660393,957.422585,96.9
395, 14:08:09,66.034209,187.463423,960.067472,96.9
396, 14:08:09,66.115254,188.108073,961.745028,96.9
397, 14:08:09,65.915522,187.579427,958.90554,96.9
398, 14:08:09,64.957663,183.296283,943.990767,96.9
399, 14:08:09,64.185803,178.863281,929.56321,96.9
400, 14:08:09,64.068971,177.183712,925.681818,96.9
401, 14:08:09,64.000947,176.420928,923.849432,96.9
402, 14:08:09,63.86336,175.497277,920.651278,96.9
403, 14:08:09,63.618845,174.22822,915.730114,96.9
404, 14:08:09,63.638928,173.979759,916.060369,96.9
405, 14:08:09,63.949061,175.17294,921.395597,96.9
406, 14:08:09,64.121843,176.064394,925.073864,96.9
407, 14:08:09,64.107442,176.090791,923.837358,96.9
408, 14:08:09,64.069602,176.018466,923.721591,96.9
409, 14:08:09,64.160748,176.403646,923.87358,96.9
410, 14:08:09,64.334122,177.174716,928.105114,96.9
411, 14:08:09,64.491083,177.994555,930.183239,96.9
412, 14:08:09,64.6192,178.750592,933.168324,96.9
413, 14:08:09,64.731731,179.478338,935.227983,96.9
414, 14:08:09,64.824258,180.15696,937.299716,96.9
415, 14:08:09,64.894729,180.663352,937.59375,96.9
416, 14:08:09,65.000039,181.250118,939.691051,96.9
417, 14:08:09,65.085582,181.845289,940.941051,96.9
418, 14:08:09,65.166193,182.376894,943.201705,96.9
419, 14:08:09,65.332899,183.150213,945.824574,96.9
420, 14:08:10,65.469815,183.929332,948.272017,96.925
421, 14:08:10,65.60831,184.688565,950.648438,96.925
422, 14:08:10,65.667259,185.141927,951.235085,96.925
423, 14:08:10,65.566998,185.00071,950.490057,96.925
424, 14:08:10,64.742385,181.457741,937.306108,96.925
425, 14:08:10,63.978614,177.026278,924.348011,96.925
426, 14:08:10,63.803859,175.152107,918.912642,96.925
427, 14:08:10,63.74349,174.479995,916.985085,96.925
428, 14:08:10,63.597459,173.664536,914.069602,96.925
429, 14:08:10,63.38514,172.506747,910.256392,96.925
430, 14:08:10,63.413668,172.398201,910.769886,96.925
431, 14:08:10,63.720881,173.645597,916.333807,96.925
432, 14:08:10,63.835464,174.309896,918.296875,96.925
433, 14:08:10,63.802004,174.372396,917.46733,96.925
434, 14:08:10,63.753709,174.235085,916.544034,96.925
435, 14:08:10,63.878433,174.739938,918.007812,96.925
436, 14:08:10,64.072838,175.575047,921.481534,96.925
437, 14:08:10,64.226484,176.462121,924.877841,96.925
438, 14:08:10,64.352036,177.236032,927.890625,96.925
439, 14:08:10,64.426215,177.757812,927.884943,96.925
440, 14:08:10,64.558278,178.529948,931.077415,96.925
441, 14:08:10,64.616083,179.047585,932.68892,96.925
442, 14:08:10,64.73548,179.581913,934.963068,96.925
443, 14:08:10,64.785472,180.247514,935.070312,96.925
444, 14:08:10,64.939433,180.902107,937.492188,96.925
445, 14:08:10,65.054609,181.66714,940.315341,96.925
446, 14:08:10,65.124605,182.305634,942.046875,96.925
447, 14:08:10,65.28054,182.983665,944.634943,96.925
448, 14:08:10,65.337792,183.431937,945.995028,96.925
449, 14:08:10,65.503591,184.384351,948.911222,96.925
450, 14:08:11,65.589883,184.933475,950.490057,96.925
451, 14:08:11,65.643505,185.399266,951.62571,96.925
452, 14:08:11,65.490609,185.038589,950.149148,96.925
453, 14:08:11,64.454111,180.495857,933.327415,96.925
454, 14:08:11,63.650608,175.68099,918.654119,96.925
455, 14:08:11,63.303622,173.167495,911.041903,96.925
456, 14:08:11,63.20861,172.301018,909.147017,96.925
457, 14:08:11,62.957899,171.049834,904.43821,96.925
458, 14:08:11,62.694168,169.435724,900.145597,96.925
459, 14:08:11,62.528212,168.538707,896.658381,96.925
460, 14:08:11,62.685133,168.932292,898.744318,96.925
461, 14:08:11,63.029238,170.521899,905.799006,96.925
462, 14:08:11,63.012863,170.80232,905.53267,96.925
463, 14:08:11,63.018624,170.799716,905.181818,96.925
464, 14:08:11,63.054766,171.097538,906.258523,96.925
465, 14:08:11,63.215515,171.865294,908.09233,96.925
466, 14:08:11,63.417298,172.738163,911.838068,96.925
467, 14:08:11,63.579979,173.614465,914.808949,96.925
468, 14:08:11,63.70131,174.375237,917.37358,96.925
469, 14:08:11,63.78709,174.887311,918.573864,96.925
470, 14:08:11,63.929411,175.659446,921.371449,96.925
471, 14:08:11,64.002486,176.337003,922.575994,96.925
472, 14:08:11,64.128709,177.04285,925.555398,96.925
473, 14:08:11,64.241004,177.852746,927.306818,96.925
474, 14:08:11,64.34154,178.613636,930.022727,96.925
475, 14:08:11,64.499329,179.386719,932.110085,96.925
476, 14:08:11,64.598011,180.137311,934.443182,96.925
477, 14:08:11,64.72092,180.814749,936.402699,96.925
478, 14:08:11,64.85685,181.608428,938.494318,96.925
479, 14:08:11,65.002012,182.447798,940.965199,96.925
480, 14:08:12,65.096709,183.255563,944.149858,96.95
481, 14:08:12,65.174874,183.812027,945.213068,96.95
482, 14:08:12,64.676491,182.101918,938.006392,96.95
483, 14:08:12,63.699258,177.491714,922.504261,96.95
484, 14:08:12,63.172585,174.388494,912.666193,96.95
485, 14:08:12,63.095841,173.232126,909.347301,96.95
486, 14:08:12,62.956755,172.453598,906.875,96.95
487, 14:08:12,62.757891,171.304924,902.9375,96.95
488, 14:08:12,62.539575,170.154711,898.757812,96.95
489, 14:08:12,62.511166,169.944484,898.098722,96.95
490, 14:08:12,62.820707,171.221591,904.224432,96.95
491, 14:08:12,62.959833,172.138021,906.205966,96.95
492, 14:08:12,62.935567,172.2442,906.556108,96.95
493, 14:08:12,62.960109,172.436198,906.699574,96.95
494, 14:08:12,63.058515,172.984257,908.394176,96.95
495, 14:08:12,63.202652,173.851326,911.21875,96.95
496, 14:08:12,63.296323,174.672112,913.825284,96.95
497, 14:08:12,63.45569,175.530895,917.37571,96.95
498, 14:08:12,63.494358,176.158262,918.060369,96.95
499, 14:08:12,63.602233,176.848366,920.357244,96.95
500, 14:08:12,63.742148,177.714134,922.921165,96.95
501, 14:08:12,63.870778,178.488755,925.142756,96.95
502, 14:08:12,63.976089,179.238873,927.603693,96.95
503, 14:08:12,64.098643,179.954072,929.755682,96.95
504, 14:08:12,64.206873,180.655185,931.456676,96.95
505, 14:08:12,64.310054,181.340199,933.629261,96.95
506, 14:08:12,64.441248,182.185014,936.456676,96.95
507, 14:08:12,64.528015,182.943892,938.09517,96.95
508, 14:08:12,64.574495,183.636364,940.713068,96.95
509, 14:08:12,64.610953,184.347064,942.923295,96.95
510, 14:08:13,64.660354,184.98911,944.221591,96.975
511, 14:08:13,64.798414,185.971473,947.019176,96.975
512, 14:08:13,64.840041,186.740767,949.330966,96.975
513, 14:08:13,64.895241,187.445194,951.509233,96.975
514, 14:08:13,64.802754,187.391217,950.651278,96.975
515, 14:08:13,63.926057,183.966619,937.024148,96.975
516, 14:08:13,63.265428,180.143348,925.232244,96.975
517, 14:08:13,63.108112,178.366951,919.673295,96.975
518, 14:08:13,63.04285,177.788116,918.84233,96.975
519, 14:08:13,62.941959,177.16205,917.256392,96.975
520, 14:08:13,62.687816,175.97822,913.215909,96.975
521, 14:08:13,62.567353,175.363991,910.825994,96.975
522, 14:08:13,62.698232,175.867898,913.59375,96.975
523, 14:08:13,62.889717,176.775687,917.145597,96.975
524, 14:08:13,62.84884,176.802202,917.25071,96.975
525, 14:08:13,62.778409,176.54072,914.392045,96.975
526, 14:08:13,62.815065,176.741122,916.051847,96.975
527, 14:08:13,62.839844,177.068774,916.293324,96.975
528, 14:08:13,62.972893,177.674834,918.901278,96.975
529, 14:08:13,63.083846,178.354285,921.509233,96.975
530, 14:08:13,63.127052,178.945549,923.644886,96.975
531, 14:08:13,63.216619,179.572206,925.049716,96.975
532, 14:08:13,63.201034,180.000355,925.879972,96.975
533, 14:08:13,63.255208,180.400568,927.051136,96.975
534, 14:08:13,63.287603,181.029948,928.926847,96.975
535, 14:08:13,63.346275,181.476799,929.423295,96.975
536, 14:08:13,63.430832,182.105469,932.365767,96.975
537, 14:08:13,63.499132,182.642282,933.663352,96.975
538, 14:08:13,63.592487,183.256629,936.693182,96.975
539, 14:08:13,63.692511,183.850734,937.90554,96.975
540, 14:08:14,63.777541,184.346354,939.785511,96.975
541, 14:08:14,63.851089,184.872396,941.086648,96.975
542, 14:08:14,63.667298,184.321496,939.227273,96.975
543, 14:08:14,62.875,180.917614,926.085227,96.975
544, 14:08:14,62.255011,177.405658,914.703835,96.975
545, 14:08:14,62.166509,175.9375,911.323864,96.975
546, 14:08:14,62.120857,175.246567,910.337358,96.975
547, 14:08:14,61.954901,174.305516,906.480824,96.975
548, 14:08:14,61.770636,173.218158,903.266335,96.975
549, 14:08:14,61.824653,173.129735,903.482955,96.975
550, 14:08:14,62.075402,174.021188,908.306108,96.975
551, 14:08:14,62.063408,174.270715,908.300426,96.975
552, 14:08:14,61.997514,174.05883,907.807528,96.975
553, 14:08:14,61.988084,173.928267,907.12642,96.975
554, 14:08:14,62.036222,174.143703,908.830966,96.975
555, 14:08:14,62.221039,174.879498,911.026989,96.975
556, 14:08:14,62.322009,175.314039,913.310369,96.975
557, 14:08:14,62.433988,175.905658,914.74929,96.975
558, 14:08:14,62.408696,176.379025,915.242898,96.975
559, 14:08:14,62.51452,176.883996,916.8125,96.975
560, 14:08:14,62.594066,177.409564,918.914773,96.975
561, 14:08:14,62.593513,177.778172,919.492898,96.975
562, 14:08:14,62.678741,178.346828,921.708807,96.975
563, 14:08:14,62.75509,178.925781,923.236506,96.975
564, 14:08:14,62.843395,179.509825,925.200994,96.975
565, 14:08:14,62.928464,180.195431,926.956676,96.975
566, 14:08:14,63.055161,180.859612,928.859375,96.975
567, 14:08:14,63.12279,181.355114,930.741477,96.975
568, 14:08:14,62.769847,180.060014,924.933949,96.975
569, 14:08:14,61.911103,175.961529,911.010653,96.975
570, 14:08:15,61.38297,172.219934,899.84233,96.975
571, 14:08:15,61.246449,170.679688,895.115057,96.975
572, 14:08:15,61.119594,169.666548,892.800426,96.975
573, 14:08:15,60.915522,168.407552,888.215199,96.975
574, 14:08:15,60.709833,167.060369,884.160511,96.975
575, 14:08:15,60.671796,166.62571,882.586648,96.975
576, 14:08:15,60.939986,167.690223,887.547585,96.975
577, 14:08:15,61.056739,168.223248,889.586648,96.975
578, 14:08:15,61.019255,168.141572,889.340909,96.975
579, 14:08:15,61.022293,168.125118,889.120028,96.975
580, 14:08:15,61.133878,168.55883,891.330256,96.975
581, 14:08:15,61.286222,169.252604,893.421875,96.975
582, 14:08:15,61.423887,169.900923,896.098722,96.975
583, 14:08:15,61.568024,170.636364,897.798295,96.975
584, 14:08:15,61.669902,171.175426,900.223011,96.975
585, 14:08:15,61.814789,171.855824,902.552557,96.975
586, 14:08:15,61.900963,172.365294,904.223011,96.975
587, 14:08:15,62.004616,172.984493,907.171165,96.975
588, 14:08:15,62.140664,173.716974,908.983665,96.975
589, 14:08:15,62.187973,174.318182,909.542614,96.975
590, 14:08:15,62.367227,175.063329,913.189631,96.975
591, 14:08:15,62.431345,175.557765,914.701705,96.975
592, 14:08:15,62.552044,176.366359,917.485085,96.975
593, 14:08:15,62.679609,177.069129,919.3125,96.975
594, 14:08:15,62.785117,177.98035,922.663352,96.975
595, 14:08:15,62.840712,178.470999,923.950994,96.975
596, 14:08:15,62.697996,178.211411,922.075284,96.975
597, 14:08:15,61.86553,174.679451,908.974432,96.975
598, 14:08:15,61.168916,170.362334,894.458097,96.975
599, 14:08:15,60.941919,168.45786,888.900568,96.975
600, 14:08:16,60.85389,167.648793,887.014915,96.975
601, 14:08:16,60.672309,166.438329,882.56179,96.975
602, 14:08:16,60.469697,165.221117,879.417614,96.975
603, 14:08:16,60.327533,164.369437,875.941051,96.975
604, 14:08:16,60.556226,165.074455,879.966619,96.975
605, 14:08:16,60.830769,166.451113,884.365767,96.975
606, 14:08:16,60.893663,166.895952,886.054688,96.975
607, 14:08:16,60.891098,166.968277,885.951705,96.975
608, 14:08:16,60.940696,167.231179,886.764915,96.975
609, 14:08:16,61.108862,168.083215,889.658381,96.975
610, 14:08:16,61.281408,168.905777,893.247159,96.975
611, 14:08:16,61.437697,169.764323,896.049006,96.975
612, 14:08:16,61.582307,170.580256,898.444602,96.975
613, 14:08:16,61.676965,171.231652,900.605824,96.975
614, 14:08:16,61.836806,172.012784,903.852273,96.975
615, 14:08:16,61.947167,172.64974,905.108665,96.975
616, 14:08:16,62.061948,173.373343,907.72017,96.975
617, 14:08:16,62.182292,174.081913,910.735795,96.975
618, 14:08:16,62.283933,174.82197,912.960227,96.975
619, 14:08:16,62.423177,175.659209,914.506392,96.975
620, 14:08:16,62.498895,176.383996,916.596591,96.975
621, 14:08:16,62.652896,177.162287,919.732244,96.975
622, 14:08:16,62.75434,177.932055,922.12358,96.975
623, 14:08:16,62.83215,178.664062,923.617898,96.975
624, 14:08:16,62.925663,179.419508,927.150568,96.975
625, 14:08:16,63.035551,180.034209,928.208097,96.975
626, 14:08:16,63.13447,180.784564,930.522727,96.975
627, 14:08:16,63.224826,181.380445,931.899148,96.975
628, 14:08:16,63.403883,182.224432,935.292614,96.975
629, 14:08:16,63.528449,182.939512,937.108665,96.975
630, 14:08:17,63.649621,183.625,939.139205,96.75
631, 14:08:17,63.206242,182.155658,932.37429,96.75
632, 14:08:17,62.223722,177.389441,917.379261,96.75
633, 14:08:17,61.715278,173.956913,906.210227,96.75
634, 14:08:17,61.568892,172.545218,902.382102,96.75
635, 14:08:17,61.497672,171.897372,901.139915,96.75
636, 14:08:17,61.278804,170.549953,896.06108,96.75
637, 14:08:17,61.123264,169.480587,893.079545,96.75
638, 14:08:17,61.105666,169.093513,892.382102,96.75
639, 14:08:17,61.386403,170.165365,897.426847,96.75
640, 14:08:17,61.565301,171.206321,900.112926,96.75
641, 14:08:17,61.522964,171.249763,899.788352,96.75
642, 14:08:17,61.537958,171.341619,900.40483,96.75
643, 14:08:17,61.636324,171.735204,901.533381,96.75
644, 14:08:17,61.776673,172.351326,903.923295,96.75
645, 14:08:17,61.960346,173.129143,906.504972,96.75
646, 14:08:17,62.091304,173.885653,909.575284,96.75
647, 14:08:17,62.198311,174.695312,911.899148,96.75
648, 14:08:17,62.304885,175.19117,913.71804,96.75
649, 14:08:17,62.431384,175.897846,916.943892,96.75
650, 14:08:17,62.517361,176.357008,917.738636,96.75
651, 14:08:17,62.603378,177.110322,918.613636,96.75
652, 14:08:17,62.738518,177.788944,921.634233,96.75
653, 14:08:17,62.852588,178.307292,923.048295,96.75
654, 14:08:17,62.992227,178.96295,925.129972,96.75
655, 14:08:17,63.054727,179.560488,927.428267,96.75
656, 14:08:17,63.191367,180.294744,930.427557,96.75
657, 14:08:17,63.312895,180.971828,932.228693,96.75
658, 14:08:17,63.422546,181.613281,933.321733,96.75
659, 14:08:17,63.537642,182.229403,935.90767,96.75
660, 14:08:18,63.292535,181.388021,932.757102,96.725
661, 14:08:18,62.562973,177.607008,919.465909,96.725
662, 14:08:18,61.929766,173.961174,908.201705,96.725
663, 14:08:18,61.799006,172.559896,904.305398,96.725
664, 14:08:18,61.742661,171.858665,902.271307,96.725
665, 14:08:18,61.623264,170.947443,899.153409,96.725
666, 14:08:18,61.489307,170.119437,896.995028,96.725
667, 14:08:18,61.588976,170.333688,897.90554,96.725
668, 14:08:18,61.908183,171.705611,903.901278,96.725
669, 14:08:18,61.934265,172.043797,904.299716,96.725
670, 14:08:18,61.926807,171.931463,903.591619,96.725
671, 14:08:18,61.954467,172.040483,903.927557,96.725
672, 14:08:18,62.061987,172.587003,907.107244,96.725
673, 14:08:18,62.27111,173.38151,910.010653,96.725
674, 14:08:18,62.427438,174.063092,912.259233,96.725
675, 14:08:18,62.582268,174.839134,914.790483,96.725
676, 14:08:18,62.699732,175.548059,917.291193,96.725
677, 14:08:18,62.749763,176.022964,917.93608,96.725
678, 14:08:18,62.873106,176.592803,920.997159,96.725
679, 14:08:18,62.948548,177.06108,921.193182,96.725
680, 14:08:18,63.0625,177.679451,924.309659,96.725
681, 14:08:18,63.214055,178.350497,925.955256,96.725
682, 14:08:18,63.270991,178.958333,928.116477,96.725
683, 14:08:18,63.415996,179.688329,930.473722,96.725
684, 14:08:18,63.51523,180.375237,932.359375,96.725
685, 14:08:18,63.610677,181.165838,935.066051,96.725
686, 14:08:18,63.75438,181.740885,936.840199,96.725
687, 14:08:18,63.724945,181.885535,936.833097,96.725
688, 14:08:18,63.171638,179.288116,927.603693,96.725
689, 14:08:18,62.351641,174.662405,913.113636,96.725
690, 14:08:19,61.972972,172.018821,905.135653,96.7
691, 14:08:19,61.880366,170.986742,901.988636,96.7
692, 14:08:19,61.754182,170.194366,899.580966,96.7
693, 14:08:19,61.522846,168.981416,894.970881,96.7
694, 14:08:19,61.434343,168.293087,893.528409,96.7
695, 14:08:19,61.624448,168.858191,896.140625,96.7
696, 14:08:19,61.925268,170.270123,901.978693,96.7
697, 14:08:19,62.05524,170.950284,903.849432,96.7
698, 14:08:19,62.027186,170.875592,903.566051,96.7
699, 14:08:19,62.098011,171.179924,903.829545,96.7
700, 14:08:19,62.276397,171.877012,907.46946,96.7
701, 14:08:19,62.460582,172.771425,910.37571,96.7
702, 14:08:19,62.599156,173.610914,913.114347,96.7
703, 14:08:19,62.714252,174.297585,915.669034,96.7
704, 14:08:19,62.859572,175.039891,918.273438,96.7
705, 14:08:19,62.972932,175.691051,920.018466,96.7
706, 14:08:19,63.093355,176.310843,922.59233,96.7
707, 14:08:19,63.261995,177.048295,924.389205,96.7
708, 14:08:19,63.375552,177.615767,926.771307,96.7
709, 14:08:19,63.530816,178.3808,928.205256,96.7
710, 14:08:19,63.639165,179.074692,931.087358,96.7
711, 14:08:19,63.797348,179.792614,933.105114,96.7
712, 14:08:19,63.875513,180.507694,935.520597,96.7
713, 14:08:19,63.939828,181.09742,937.027699,96.7
714, 14:08:19,64.158775,181.961174,940.59375,96.7
715, 14:08:19,64.240175,182.537287,941.695312,96.7
716, 14:08:19,64.362137,183.335938,944.276989,96.7
717, 14:08:19,64.354206,183.459399,944.529119,96.7
718, 14:08:19,63.640073,180.392282,932.615057,96.7
719, 14:08:19,62.840672,175.4884,919.240057,96.7
720, 14:08:20,62.423532,172.711411,910.03267,96.725
721, 14:08:20,62.322128,171.838068,906.707386,96.725
722, 14:08:20,62.142795,170.837476,904.192472,96.725
723, 14:08:20,61.972025,169.692116,900.192472,96.725
724, 14:08:20,61.816012,168.788944,897.25071,96.725
725, 14:08:20,61.952217,169.168679,899.350142,96.725
726, 14:08:20,62.347143,170.828362,906.103693,96.725
727, 14:08:20,62.516335,171.685843,908.81392,96.725
728, 14:08:20,62.499369,171.695549,908.625,96.725
729, 14:08:20,62.580532,171.923414,909.324574,96.725
730, 14:08:20,62.746015,172.667969,912.439631,96.725
731, 14:08:20,62.951034,173.591738,915.712358,96.725
732, 14:08:20,63.085346,174.307647,917.996449,96.725
733, 14:08:20,63.263179,175.222301,920.75142,96.725
734, 14:08:20,63.337831,175.75071,921.71733,96.725
735, 14:08:20,63.492819,176.497396,925.151989,96.725
736, 14:08:20,63.602746,177.026042,926.997159,96.725
737, 14:08:20,63.759115,177.778764,929.442472,96.725
738, 14:08:20,63.869476,178.516098,931.497159,96.725
739, 14:08:20,64.000473,179.20928,932.883523,96.725
740, 14:08:20,64.143308,179.901989,936.1875,96.725
741, 14:08:20,64.230824,180.505919,937.367898,96.725
742, 14:08:20,64.435803,181.419626,940.665483,96.725
743, 14:08:20,64.554609,182.155777,942.247159,96.725
744, 14:08:20,64.624092,182.854285,944.270597,96.725
745, 14:08:20,64.802596,183.659683,948.046165,96.725
746, 14:08:20,64.851997,184.289418,949.293324,96.725
747, 14:08:20,65.039299,185.205492,952.036932,96.725
748, 14:08:20,65.120581,185.943182,953.673295,96.725
749, 14:08:20,65.261995,186.855114,956.795455,96.725
750, 14:08:21,65.357994,187.378906,958.787642,96.7
751, 14:08:21,65.485519,188.130327,961.012074,96.7
752, 14:08:21,65.626026,188.857718,963.177557,96.7
753, 14:08:21,65.730745,189.744318,965.440341,96.7
754, 14:08:21,65.910827,190.533144,969.505682,96.7
755, 14:08:21,65.66351,189.729167,964.823864,96.7
756, 14:08:21,64.714804,185.155777,949.25,96.7
757, 14:08:21,63.960464,180.50071,934.808239,96.7
758, 14:08:21,63.829703,178.577178,930.085227,96.7
759, 14:08:21,63.749921,177.959991,928.740057,96.7
760, 14:08:21,63.56321,176.837831,925.103693,96.7
761, 14:08:21,63.38151,175.623698,920.949574,96.7
762, 14:08:21,63.292969,174.826349,919.31321,96.7
763, 14:08:21,63.5073,175.670573,922.84446,96.7
764, 14:08:21,63.788984,176.901989,926.835227,96.7
765, 14:08:21,63.848879,177.437737,928.464489,96.7
766, 14:08:21,63.838699,177.432292,928.017045,96.7
767, 14:08:21,63.929609,177.749053,928.855114,96.7
768, 14:08:21,64.057528,178.443419,931.612216,96.7
769, 14:08:21,64.197128,179.236269,933.451705,96.7
770, 14:08:21,64.374605,180.024858,937.004261,96.7
771, 14:08:21,64.514915,180.792377,938.646307,96.7
772, 14:08:21,64.649779,181.556818,941.409091,96.7
773, 14:08:21,64.764126,182.164536,942.129261,96.7
774, 14:08:21,64.871922,182.734612,944.99858,96.7
775, 14:08:21,64.990254,183.521899,945.824574,96.7
776, 14:08:21,65.12642,184.160511,948.755682,96.7
777, 14:08:21,65.30303,184.967803,952.460227,96.7
778, 14:08:21,65.414141,185.606534,953.747159,96.7
779, 14:08:21,65.500158,186.424242,956.548295,96.7
780, 14:08:22,65.555674,187.164654,958.397017,96.725
781, 14:08:22,65.619476,187.806345,960.269886,96.725
782, 14:08:22,65.761048,188.567235,963.002841,96.725
783, 14:08:22,65.84229,189.264086,963.990767,96.725
784, 14:08:22,65.97601,190.018939,967.426136,96.725
785, 14:08:22,66.047151,190.614938,969.223722,96.725
786, 14:08:22,66.021386,190.640862,969.143466,96.725
787, 14:08:22,65.306976,187.440341,956.633523,96.725
788, 14:08:22,64.651594,182.984612,944.137784,96.725
789, 14:08:22,64.336687,180.791312,936.634233,96.725
790, 14:08:22,64.277462,180.208807,935.678977,96.725
791, 14:08:22,64.195589,179.605232,933.796165,96.725
792, 14:08:22,64.029751,178.517282,930.336648,96.725
793, 14:08:22,63.999684,178.160511,930.15625,96.725
794, 14:08:22,64.257852,179.104522,934.615767,96.725
795, 14:08:22,64.398832,179.943182,936.224432,96.725
796, 14:08:22,64.38447,180.00142,936.15625,96.725
797, 14:08:22,64.367266,179.881155,935.221591,96.725
798, 14:08:22,64.451586,180.183357,937.03196,96.725
799, 14:08:22,64.594066,180.822443,939.323864,96.725
800, 14:08:22,64.782947,181.676491,942.058949,96.725
801, 14:08:22,64.901673,182.306345,944.1875,96.725
802, 14:08:22,64.996686,182.816761,945.6875,96.725
803, 14:08:22,65.132655,183.512547,947.964489,96.725
804, 14:08:22,65.197128,183.976326,948.548295,96.725
805, 14:08:22,65.321102,184.627604,950.71733,96.725
806, 14:08:22,65.410985,185.149621,952.545455,96.725
807, 14:08:22,65.554569,185.747988,954.703835,96.725
808, 14:08:22,65.660196,186.371212,956.784091,96.725
809, 14:08:22,65.716067,186.907197,957.670455,96.725
810, 14:08:23,65.834596,187.752367,960.701705,96.7
811, 14:08:23,65.873146,188.406842,962.702415,96.7
812, 14:08:23,65.959478,189.174361,964.989347,96.7
813, 14:08:23,65.969381,189.444129,965.625,96.7
814, 14:08:23,65.47096,187.202652,956.525568,96.7
815, 14:08:23,64.669665,182.511837,942.210227,96.7
816, 14:08:23,64.149108,179.336056,933.12429,96.7
817, 14:08:23,64.008562,178.371804,929.997869,96.7
818, 14:08:23,63.869555,177.432528,927.728693,96.7
819, 14:08:23,63.679056,176.273911,924.43892,96.7
820, 14:08:23,63.559146,175.273556,921.345881,96.7
821, 14:08:23,63.633562,175.355705,922.418324,96.7
822, 14:08:23,63.951192,176.797704,928.21804,96.7
823, 14:08:23,64.050268,177.334991,929.680398,96.7
824, 14:08:23,64.013731,177.377841,929.346591,96.7
825, 14:08:23,64.051057,177.483665,928.825284,96.7
826, 14:08:23,64.182331,178.007694,930.850142,96.7
827, 14:08:23,64.339449,178.847893,933.612926,96.7
828, 14:08:23,64.480548,179.62867,937.706676,96.7
829, 14:08:23,64.631944,180.367898,938.724432,96.7
830, 14:08:23,64.695234,180.802557,940.244318,96.7
831, 14:08:23,64.824179,181.563447,941.795455,96.7
832, 14:08:23,64.904672,182.049242,943.414773,96.7
833, 14:08:23,65.042219,182.729403,945.518466,96.7
834, 14:08:23,65.148753,183.311316,947.947443,96.7
835, 14:08:23,65.238005,183.893466,949.073864,96.7
836, 14:08:23,65.386245,184.676728,951.895597,96.7
837, 14:08:23,65.44693,185.311908,952.868608,96.7
838, 14:08:23,65.56613,185.927557,955.451705,96.7
839, 14:08:23,65.712516,186.720407,958.475852,96.7
840, 14:08:24,65.772412,187.285985,959.948864,96.7
841, 14:08:24,65.843789,187.944721,961.276278,96.7
842, 14:08:24,65.8997,188.476089,963.583807,96.7
843, 14:08:24,65.987295,189.253078,965.757102,96.7
844, 14:08:24,66.071496,189.91572,967.428977,96.7
845, 14:08:24,66.156645,190.652225,969.544034,96.7
846, 14:08:24,66.039536,190.406013,968.103693,96.7
847, 14:08:24,65.145005,186.221946,953.178267,96.7
848, 14:08:24,64.262981,180.810251,937.137074,96.7
849, 14:08:24,63.825521,177.979403,928.683239,96.7
850, 14:08:24,63.714291,177.019295,926.365767,96.7
851, 14:08:24,63.530342,175.864702,922.835938,96.7
852, 14:08:24,63.312421,174.47893,918.59517,96.7
853, 14:08:24,63.102115,173.360795,914.576705,96.7
854, 14:08:24,63.213226,173.662879,916.397727,96.7
855, 14:08:24,63.579664,175.181226,922.490767,96.7
856, 14:08:24,63.661932,175.841856,924.284091,96.7
857, 14:08:24,63.675505,175.878314,923.940341,96.7
858, 14:08:24,63.695668,176.018821,924.314631,96.7
859, 14:08:24,63.857521,176.774266,926.977983,96.7
860, 14:08:24,64.027107,177.544389,930.573153,96.7
861, 14:08:24,64.157039,178.428504,932.28125,96.7
862, 14:08:24,64.303504,179.122159,934.903409,96.7
863, 14:08:24,64.390546,179.706676,936.120739,96.7
864, 14:08:24,64.510851,180.436908,938.107244,96.7
865, 14:08:24,64.610598,180.976207,940.039062,96.7
866, 14:08:24,64.744594,181.606416,942.016335,96.7
867, 14:08:24,64.881155,182.338542,944.295455,96.7
868, 14:08:24,64.938763,182.905777,944.798295,96.7
869, 14:08:24,65.098366,183.59008,948.202415,96.7
870, 14:08:25,65.200324,184.211293,950.176847,96.725
871, 14:08:25,65.334754,184.957386,952.6875,96.725
872, 14:08:25,65.482599,185.709162,955.132812,96.725
873, 14:08:25,65.546441,186.323982,956.571733,96.725
874, 14:08:25,65.652107,187.131037,958.970881,96.725
875, 14:08:25,65.690538,187.698982,960.59446,96.725
876, 14:08:25,65.758681,188.464015,963.042614,96.725
877, 14:08:25,65.819523,189.175426,965.098011,96.725
878, 14:08:25,65.984336,190.009825,968.377131,96.725
879, 14:08:25,66.092408,190.695312,970.117898,96.725
880, 14:08:25,66.003551,190.538116,969.316761,96.725
881, 14:08:25,65.120581,186.583807,954.75,96.725
882, 14:08:25,64.162524,180.845526,937.115767,96.725
883, 14:08:25,63.717842,178.031842,927.801847,96.725
884, 14:08:25,63.606534,177.012784,926.221591,96.725
885, 14:08:25,63.49637,176.135417,923.517045,96.725
886, 14:08:25,63.217724,174.737926,918.288352,96.725
887, 14:08:25,63.107521,173.806463,916.509233,96.725
888, 14:08:25,63.22822,174.190341,918.008523,96.725
889, 14:08:25,63.522727,175.677557,922.696023,96.725
890, 14:08:25,63.663747,176.438684,925.59233,96.725
891, 14:08:25,63.623106,176.352273,924.670455,96.725
892, 14:08:25,63.662169,176.510653,925.080966,96.725
893, 14:08:25,63.774779,177.099905,927.241477,96.725
894, 14:08:25,63.972656,178.037287,930.539062,96.725
895, 14:08:25,64.105587,178.883996,932.900568,96.725
896, 14:08:25,64.241793,179.532197,935.323864,96.725
897, 14:08:25,64.426215,180.44768,937.981534,96.725
898, 14:08:25,64.48982,180.923532,939.203125,96.725
899, 14:08:25,64.584478,181.594342,940.762074,96.725
900, 14:08:26,64.670376,182.108665,942.669034,96.725
901, 14:08:26,64.819129,182.780303,944.707386,96.725
902, 14:08:26,64.951547,183.544508,946.576705,96.725
903, 14:08:26,65.050623,184.096473,948.232244,96.725
904, 14:08:26,65.200442,185.04072,952.176136,96.725
905, 14:08:26,65.309383,185.657789,953.705256,96.725
906, 14:08:26,65.365846,186.455019,955.619318,96.725
907, 14:08:26,65.415009,187.091619,957.396307,96.725
908, 14:08:26,65.48986,187.701113,959.601562,96.725
909, 14:08:26,65.574771,188.289654,961.465199,96.725
910, 14:08:26,65.639678,188.903883,963.125,96.725
911, 14:08:26,65.753867,189.597775,965.589489,96.725
912, 14:08:26,65.853575,190.248224,967.776278,96.725
913, 14:08:26,65.948232,190.858902,969.821023,96.725
914, 14:08:26,65.434738,188.977983,962.302557,96.725
915, 14:08:26,64.348011,183.566761,943.491477,96.725
916, 14:08:26,63.68821,178.844934,930.274148,96.725
917, 14:08:26,63.487966,177.348366,925.581676,96.725
918, 14:08:26,63.459162,176.885535,925.290483,96.725
919, 14:08:26,63.280185,175.950402,921.665483,96.725
920, 14:08:26,63.121567,175.040838,918.355824,96.725
921, 14:08:26,63.182844,175.117188,919.836648,96.725
922, 14:08:26,63.460503,176.489938,924.584517,96.725
923, 14:08:26,63.571772,177.114465,926.664062,96.725
924, 14:08:26,63.498935,176.932884,925.239347,96.725
925, 14:08:26,63.503946,176.985795,925.772727,96.725
926, 14:08:26,63.6323,177.436198,927.526278,96.725
927, 14:08:26,63.824495,178.269413,930.357955,96.725
928, 14:08:26,63.974945,179.197562,933.264915,96.725
929, 14:08:26,64.104798,179.875,935.247159,96.725
930, 14:08:27,64.205177,180.61553,936.980114,96.725
931, 14:08:27,64.317472,181.170218,938.649148,96.725
932, 14:08:27,64.437303,181.770715,940.828835,96.725
933, 14:08:27,64.560646,182.429569,942.262074,96.725
934, 14:08:27,64.611742,182.818655,943.196023,96.725
935, 14:08:27,64.740412,183.561198,945.600142,96.725
936, 14:08:27,64.773161,184.267401,947.422585,96.725
937, 14:08:27,64.947996,185.076468,950.632102,96.725
938, 14:08:27,65.027817,185.815459,952.966619,96.725
939, 14:08:27,65.051926,186.456439,954.15625,96.725
940, 14:08:27,65.123106,187.06108,956.511364,96.725
941, 14:08:27,65.202573,187.67732,958.31108,96.725
942, 14:08:27,65.347577,188.423887,960.549006,96.725
943, 14:08:27,65.461963,189.02036,962.056818,96.725
944, 14:08:27,65.207031,188.213423,959.056108,96.725
945, 14:08:27,64.139086,183.197088,942.120028,96.725
946, 14:08:27,63.230745,177.722538,925.582386,96.725
947, 14:08:27,62.9259,175.41785,918.455966,96.725
948, 14:08:27,62.835543,174.571496,916.09375,96.725
949, 14:08:27,62.692077,173.698864,912.911932,96.725
950, 14:08:27,62.486545,172.389086,909.016335,96.725
951, 14:08:27,62.35105,171.783262,906.159801,96.725
952, 14:08:27,62.584833,172.607718,910.96733,96.725
953, 14:08:27,62.882615,174.109493,915.693892,96.725
954, 14:08:27,62.953046,174.534328,916.765625,96.725
955, 14:08:27,62.85539,174.342685,915.956676,96.725
956, 14:08:27,62.939039,174.729048,917.419744,96.725
957, 14:08:27,63.106179,175.450639,920.212358,96.725
958, 14:08:27,63.308357,176.515033,924.064631,96.725
959, 14:08:27,63.480903,177.364583,925.698864,96.725
960, 14:08:28,63.569444,178.070076,927.9375,96.725
961, 14:08:28,63.667535,178.770597,929.325284,96.725
962, 14:08:28,63.78709,179.267519,931.431818,96.725
963, 14:08:28,63.907749,180.022964,933.819602,96.725
964, 14:08:28,63.99712,180.601681,935.945312,96.725
965, 14:08:28,64.131155,181.43608,937.528409,96.725
966, 14:08:28,64.22601,182.156723,940.727273,96.725
967, 14:08:28,64.315341,182.839962,942.403409,96.725
968, 14:08:28,64.44259,183.715554,944.71946,96.725
969, 14:08:28,64.516059,184.405185,946.837358,96.725
970, 14:08:28,64.627012,185.176018,949.754972,96.725
971, 14:08:28,64.71074,185.858546,950.736506,96.725
972, 14:08:28,64.831755,186.567708,954.039773,96.725
973, 14:08:28,64.923295,187.117898,955.295455,96.725
974, 14:08:28,65.002091,187.741122,957.193892,96.725
975, 14:08:28,65.139126,188.352983,959.018466,96.725
976, 14:08:28,65.224826,189.019176,960.975852,96.725
977, 14:08:28,65.371212,189.817235,964.133523,96.725
978, 14:08:28,65.216383,189.494318,962.215909,96.725
979, 14:08:28,64.088581,184.756274,945.026278,96.725
980, 14:08:28,62.962595,178.588542,925.232955,96.725
981, 14:08:28,62.57706,175.315459,915.665483,96.725
982, 14:08:28,62.522609,174.383168,912.767756,96.725
983, 14:08:28,62.318892,173.379025,909.93608,96.725
984, 14:08:28,62.128709,172.039536,906.49858,96.725
985, 14:08:28,61.947522,170.9491,902.200284,96.725
986, 14:08:28,62.067985,171.210582,904.004972,96.725
987, 14:08:28,62.390586,172.803859,909.283381,96.725
988, 14:08:28,62.516611,173.604285,912.108665,96.725
989, 14:08:28,62.49057,173.721236,911.705256,96.725
990, 14:08:29,62.516572,173.845644,911.786932,96.75
991, 14:08:29,62.678346,174.564394,914.585227,96.75
992, 14:08:29,62.83937,175.449929,917.733665,96.75
993, 14:08:29,63.048177,176.485914,920.929688,96.75
994, 14:08:29,63.197719,177.349313,924.019176,96.75
995, 14:08:29,63.317077,178.052557,925.505682,96.75
996, 14:08:29,63.420533,178.735085,928.612216,96.75
997, 14:08:29,63.510653,179.495502,929.731534,96.75
998, 14:08:29,63.653409,180.36553,933.508523,96.75
999, 14:08:29,63.751973,181.106297,934.504261,96.75
1000, 14:08:29,63.832584,181.951823,937.051847,96.75
1001, 14:08:29,63.928741,182.857244,939.430398,96.75
1002, 14:08:29,64.073232,183.677083,942.573864,96.75
1003, 14:08:29,64.21003,184.476207,944.740767,96.75
1004, 14:08:29,64.276752,185.073627,946.09233,96.75
1005, 14:08:29,64.442195,186.019295,948.547585,96.75
1006, 14:08:29,64.576941,186.794744,950.973011,96.75
1007, 14:08:29,64.706676,187.619555,953.669034,96.75
1008, 14:08:29,64.769768,188.197562,955.622869,96.75
1009, 14:08:29,64.177675,186.023556,946.075994,96.75
1010, 14:08:29,63.1439,181.324692,930.007812,96.75
1011, 14:08:29,62.580926,177.820904,918.573153,96.75
1012, 14:08:29,62.516098,176.823864,916.411932,96.75
1013, 14:08:29,62.456716,176.158026,914.164062,96.75
1014, 14:08:29,62.285275,175.083097,910.828125,96.75
1015, 14:08:29,62.101681,174.09813,907.137074,96.75
1016, 14:08:29,62.077139,173.881037,907.013494,96.75
1017, 14:08:29,62.396149,175.160038,911.886364,96.75
1018, 14:08:29,62.520163,175.918916,914.024858,96.75
1019, 14:08:29,62.468158,176.052675,914.014915,96.75
1020, 14:08:30,62.446615,176.164181,913.979403,96.75
1021, 14:08:30,62.555674,176.749408,916.189631,96.75
1022, 14:08:30,62.707663,177.55812,919.141335,96.75
1023, 14:08:30,62.751105,178.365057,919.877841,96.75
1024, 14:08:30,62.875986,179.243963,923.605824,96.75
1025, 14:08:30,62.938329,179.985914,924.932528,96.75
1026, 14:08:30,63.074574,180.797112,927.62642,96.75
1027, 14:08:30,63.169271,181.386127,929.450284,96.75
1028, 14:08:30,63.25872,181.899266,931.614347,96.75
1029, 14:08:30,63.371409,182.648793,933.53196,96.75
1030, 14:08:30,63.465317,183.252959,935.458097,96.75
1031, 14:08:30,63.520241,183.927675,936.267756,96.75
1032, 14:08:30,63.641256,184.65767,939.247159,96.75
1033, 14:08:30,63.798414,185.443063,942.067472,96.75
1034, 14:08:30,63.906921,186.289891,944.790483,96.75
1035, 14:08:30,63.987926,186.902699,946.384943,96.75
1036, 14:08:30,63.92369,186.971828,946.007102,96.75
1037, 14:08:30,63.079348,183.699219,932.587358,96.75
1038, 14:08:30,62.317116,179.847656,920.415483,96.75
1039, 14:08:30,61.98694,178.040365,913.898438,96.75
1040, 14:08:30,61.989149,177.763849,914.642756,96.75
1041, 14:08:30,61.890388,177.174479,912.589489,96.75
1042, 14:08:30,61.715633,176.291312,909.460938,96.75
1043, 14:08:30,61.679451,176.006155,909.025568,96.75
1044, 14:08:30,61.928385,176.87133,912.432528,96.75
1045, 14:08:30,62.038589,177.659328,915.268466,96.75
1046, 14:08:30,62.000868,177.481297,915.191761,96.75
1047, 14:08:30,61.943813,177.307765,913.460227,96.75
1048, 14:08:30,62.017243,177.636009,914.193892,96.75
1049, 14:08:30,62.125552,178.08215,915.87642,96.75
1050, 14:08:31,62.25509,178.758168,919.185369,96.75
1051, 14:08:31,62.356968,179.351681,920.621449,96.75
1052, 14:08:31,62.467566,179.975142,923.387784,96.75
1053, 14:08:31,62.559817,180.533144,924.295455,96.75
1054, 14:08:31,62.581637,180.925308,924.12571,96.75
1055, 14:08:31,62.699692,181.430516,927.239347,96.75
1056, 14:08:31,62.740017,181.676491,927.289062,96.75
1057, 14:08:31,62.871646,182.31901,929.757812,96.75
1058, 14:08:31,62.949653,182.820549,931.840909,96.75
1059, 14:08:31,63.073232,183.519886,933.360795,96.75
1060, 14:08:31,63.171993,184.212476,935.791903,96.75
1061, 14:08:31,63.236387,184.785393,937.195312,96.75
1062, 14:08:31,63.227352,184.953362,937.333807,96.75
1063, 14:08:31,62.514362,182.059659,926.082386,96.75
1064, 14:08:31,61.696062,177.850971,911.986506,96.75
1065, 14:08:31,61.301926,175.364583,904.988636,96.75
1066, 14:08:31,61.23619,174.501184,902.802557,96.75
1067, 14:08:31,61.127683,173.712121,900.846591,96.75
1068, 14:08:31,60.984414,172.555043,896.53196,96.75
1069, 14:08:31,60.987058,171.68892,895.03125,96.75
1070, 14:08:31,61.175505,172.343277,898.130682,96.75
1071, 14:08:31,61.327454,173.103101,900.604403,96.75
1072, 14:08:31,61.287958,172.955256,900.353693,96.75
1073, 14:08:31,61.251263,172.646307,899.267045,96.75
1074, 14:08:31,61.312027,172.818182,900.360795,96.75
1075, 14:08:31,61.433594,173.264323,901.960938,96.75
1076, 14:08:31,61.606652,174.017401,904.743608,96.75
1077, 14:08:31,61.692945,174.603456,905.953125,96.75
1078, 14:08:31,61.753038,175.176728,908.367188,96.75
1079, 14:08:31,61.822877,175.763139,908.894176,96.75
1080, 14:08:32,61.885535,176.13151,910.837358,96.725
1081, 14:08:32,62.02474,176.698272,912.740767,96.725
1082, 14:08:32,62.037524,177.00651,913.74929,96.725
1083, 14:08:32,62.148477,177.647609,915.53054,96.725
1084, 14:08:32,62.273319,178.241832,918.414062,96.725
1085, 14:08:32,62.344736,178.945668,919.585938,96.725
1086, 14:08:32,62.491714,179.504972,921.646307,96.725
1087, 14:08:32,62.402225,179.342566,920.203125,96.725
1088, 14:08:32,61.619397,175.969934,908.671875,96.725
1089, 14:08:32,60.852431,171.361269,893.471591,96.725
1090, 14:08:32,60.59809,169.014441,886.620739,96.725
1091, 14:08:32,60.47889,167.863281,882.827415,96.725
1092, 14:08:32,60.268505,166.594342,878.997869,96.725
1093, 14:08:32,60.085148,165.161695,875.356534,96.725
1094, 14:08:32,60.014283,164.379498,872.964489,96.725
1095, 14:08:32,60.218395,165.042969,875.828835,96.725
1096, 14:08:32,60.520084,166.283736,879.955256,96.725
1097, 14:08:32,60.544665,166.602746,880.960227,96.725
1098, 14:08:32,60.511798,166.53776,880.564631,96.725
1099, 14:08:32,60.583807,166.867898,882.258523,96.725
1100, 14:08:32,60.763139,167.578243,885.293324,96.725
1101, 14:08:32,60.900489,168.426373,887.06392,96.725
1102, 14:08:32,61.08645,169.280658,891.016335,96.725
1103, 14:08:32,61.183633,169.952415,892.950284,96.725
1104, 14:08:32,61.302557,170.72017,895.264205,96.725
1105, 14:08:32,61.376065,171.290128,896.763494,96.725
1106, 14:08:32,61.558791,172.084991,899.683239,96.725
1107, 14:08:32,61.660235,172.762902,901.932528,96.725
1108, 14:08:32,61.711884,173.430161,903.669034,96.725
1109, 14:08:32,61.84955,174.239938,906.723722,96.725
1110, 14:08:33,61.994634,175.007576,909.707386,96.725
1111, 14:08:33,62.127407,175.842921,912.15696,96.725
1112, 14:08:33,62.184304,176.524503,914.149858,96.725
1113, 14:08:33,62.303898,177.415956,916.774148,96.725
1114, 14:08:33,62.39895,178.158026,918.516335,96.725
1115, 14:08:33,62.478614,178.733191,919.825284,96.725
1116, 14:08:33,62.580966,179.476799,921.556818,96.725
1117, 14:08:33,62.712792,180.105705,923.637074,96.725
1118, 14:08:33,62.862808,180.907552,927.314631,96.725
1119, 14:08:33,62.960385,181.503314,928.571023,96.725
1120, 14:08:33,62.72384,180.891217,926.287642,96.725
1121, 14:08:33,61.649858,176.029119,908.84233,96.725
1122, 14:08:33,60.894768,171.341501,894.165483,96.725
1123, 14:08:33,60.719658,169.349787,887.698153,96.725
1124, 14:08:33,60.630287,168.398438,885.370739,96.725
1125, 14:08:33,60.472183,167.224313,881.678267,96.725
1126, 14:08:33,60.281289,165.868963,877.247869,96.725
1127, 14:08:33,60.19764,165.144058,874.148438,96.725
1128, 14:08:33,60.374724,165.71366,878.014915,96.725
1129, 14:08:33,60.691051,167.27107,883.112216,96.725
1130, 14:08:33,60.7994,167.962595,885.639205,96.725
1131, 14:08:33,60.772372,167.963897,885.050426,96.725
1132, 14:08:33,60.842921,168.332268,886.365767,96.725
1133, 14:08:33,60.975221,168.932292,888.474432,96.725
1134, 14:08:33,61.161182,169.841501,891.733665,96.725
1135, 14:08:33,61.318576,170.76018,894.132102,96.725
1136, 14:08:33,61.441643,171.41063,897.46946,96.725
1137, 14:08:33,61.563802,172.196141,899.807528,96.725
1138, 14:08:33,61.681266,172.814157,901.643466,96.725
1139, 14:08:33,61.809856,173.475024,903.901278,96.725
1140, 14:08:34,61.917337,174.1933,906.424006,96.75
1141, 14:08:34,62.011009,174.948272,908.769176,96.75
1142, 14:08:34,62.14753,175.565223,910.993608,96.75
1143, 14:08:34,62.224629,176.369437,912.770597,96.75
1144, 14:08:34,62.362453,177.093513,915.197443,96.75
1145, 14:08:34,62.429688,177.826941,916.455966,96.75
1146, 14:08:34,62.547704,178.586293,919.398438,96.75
1147, 14:08:34,62.616201,179.34008,920.421165,96.75
1148, 14:08:34,62.74779,179.910511,923.213068,96.75
1149, 14:08:34,62.843355,180.579309,924.833807,96.75
1150, 14:08:34,62.977036,181.236979,927.100852,96.75
1151, 14:08:34,63.138652,181.999763,930.370739,96.75
1152, 14:08:34,63.188486,182.57777,930.904119,96.75
1153, 14:08:34,62.973485,181.918561,928.284091,96.75
1154, 14:08:34,61.989347,177.467093,913.643466,96.75
1155, 14:08:34,61.280619,172.950284,899.036932,96.75
1156, 14:08:34,61.072483,171.047467,894.483665,96.75
1157, 14:08:34,61.013613,170.197562,891.338778,96.75
1158, 14:08:34,60.839331,169.247159,888.102273,96.75
1159, 14:08:34,60.633207,167.870739,883.829545,96.75
1160, 14:08:34,60.599195,167.400805,883.015625,96.75
1161, 14:08:34,60.783499,168.146899,886.767756,96.75
1162, 14:08:34,61.062658,169.416667,890.832386,96.75
1163, 14:08:34,61.094223,169.826705,891.792614,96.75
1164, 14:08:34,61.038076,169.721236,891.299006,96.75
1165, 14:08:34,61.135969,170.074574,892.240057,96.75
1166, 14:08:34,61.254972,170.625237,894.728693,96.75
1167, 14:08:34,61.441682,171.433475,898.035511,96.75
1168, 14:08:34,61.597814,172.257457,900.62429,96.75
1169, 14:08:34,61.69188,172.887192,902.536222,96.75
1170, 14:08:35,61.8183,173.551965,904.334517,96.725
1171, 14:08:35,61.89678,174.174242,906.707386,96.725
1172, 14:08:35,62.016493,174.828835,908.768466,96.725
1173, 14:08:35,62.096907,175.405777,910.900568,96.725
1174, 14:08:35,62.224984,176.005445,913.191761,96.725
1175, 14:08:35,62.322917,176.773201,914.105114,96.725
1176, 14:08:35,62.369871,177.275805,915.90483,96.725
1177, 14:08:35,62.454467,178.070312,918.52983,96.725
1178, 14:08:35,62.533815,178.814039,919.543324,96.725
1179, 14:08:35,62.717842,179.65116,923.247869,96.725
1180, 14:08:35,62.842053,180.275687,925.551847,96.725
1181, 14:08:35,62.854601,180.586056,926.078835,96.725
1182, 14:08:35,62.319326,178.431463,917.676847,96.725
1183, 14:08:35,61.427951,173.496922,901.59517,96.725
1184, 14:08:35,61.018032,170.343868,892.452415,96.725
1185, 14:08:35,60.948311,169.315578,889.487216,96.725
1186, 14:08:35,60.895123,168.696259,888.367898,96.725
1187, 14:08:35,60.752289,167.774858,885.151989,96.725
1188, 14:08:35,60.632102,167.007102,882.909091,96.725
1189, 14:08:35,60.825718,167.715317,886.289062,96.725
1190, 14:08:35,61.1308,168.928385,891.556108,96.725
1191, 14:08:35,61.087516,169.077415,890.518466,96.725
1192, 14:08:35,61.079388,169.033144,890.636364,96.725
1193, 14:08:35,61.084675,169.118134,890.856534,96.725
1194, 14:08:35,61.251815,169.749763,893.50142,96.725
1195, 14:08:35,61.418363,170.593632,896.12429,96.725
1196, 14:08:35,61.559146,171.337003,898.754972,96.725
1197, 14:08:35,61.739386,172.180753,901.664062,96.725
1198, 14:08:35,61.821575,172.740294,904.242898,96.725
1199, 14:08:35,61.913273,173.316998,905.384943,96.725
1200, 14:08:36,62.047506,173.921875,907.795455,96.725
1201, 14:08:36,62.103654,174.364465,908.882812,96.725
1202, 14:08:36,62.219697,175.038826,911.252841,96.725
1203, 14:08:36,62.298374,175.570786,913.387784,96.725
1204, 14:08:36,62.46875,176.47822,916.011364,96.725
1205, 14:08:36,62.594066,177.265625,918.380682,96.725
1206, 14:08:36,62.653804,177.955256,920.200284,96.725
1207, 14:08:36,62.68458,178.22893,921.018466,96.725
1208, 14:08:36,61.985993,175.284683,910.210938,96.725
1209, 14:08:36,61.115609,170.512074,893.882102,96.725
1210, 14:08:36,60.736742,167.544034,885.045455,96.725
1211, 14:08:36,60.656802,166.670218,882.149148,96.725
1212, 14:08:36,60.577494,166.008523,881.40625,96.725
1213, 14:08:36,60.393426,164.880563,876.53054,96.725
1214, 14:08:36,60.330808,164.36411,876.178977,96.725
1215, 14:08:36,60.534525,165.250355,879.147017,96.725
1216, 14:08:36,60.837753,166.572917,884.494318,96.725
1217, 14:08:36,60.880563,166.889796,885.051847,96.725
1218, 14:08:36,60.852036,166.827888,884.955966,96.725
1219, 14:08:36,60.911774,167.096591,886.022727,96.725
1220, 14:08:36,61.09012,167.810606,888.877841,96.725
1221, 14:08:36,61.282236,168.876065,891.895597,96.725
1222, 14:08:36,61.413431,169.67732,895.259943,96.725
1223, 14:08:36,61.544429,170.424479,897.31392,96.725
1224, 14:08:36,61.622554,170.945312,899.97017,96.725
1225, 14:08:36,61.728693,171.539299,900.40625,96.725
1226, 14:08:36,61.867188,172.323627,904.052557,96.725
1227, 14:08:36,61.981692,172.892519,905.605114,96.725
1228, 14:08:36,62.135259,173.637784,907.892045,96.725
1229, 14:08:36,62.262863,174.392756,910.680398,96.725
1230, 14:08:37,62.338936,175.019176,913.617898,96.7
1231, 14:08:37,62.511206,175.737689,915.40625,96.7
1232, 14:08:37,62.622909,176.456795,918.291903,96.7
1233, 14:08:37,62.785077,177.396425,920.963778,96.7
1234, 14:08:37,62.851641,178.011364,922.664773,96.7
1235, 14:08:37,62.74199,177.731179,921.066051,96.7
1236, 14:08:37,61.735204,173.248698,905.352983,96.7
1237, 14:08:37,60.867582,168.113636,888.340909,96.7
1238, 14:08:37,60.607678,165.826349,881.233665,96.7
1239, 14:08:37,60.465159,164.957031,877.918324,96.7
1240, 14:08:37,60.312697,163.975971,875.983665,96.7
1241, 14:08:37,60.125908,162.847893,871.161222,96.7
1242, 14:08:37,60.009943,162.229167,869.860795,96.7
1243, 14:08:37,60.25801,163.039181,874.502131,96.7
1244, 14:08:37,60.596828,164.581203,880.28267,96.7
1245, 14:08:37,60.713621,165.242188,881.734375,96.7
1246, 14:08:37,60.709438,165.35464,881.167614,96.7
1247, 14:08:37,60.815933,165.765507,882.831676,96.7
1248, 14:08:37,61.005721,166.51669,886.585938,96.7
1249, 14:08:37,61.192038,167.457741,889.067472,96.7
1250, 14:08:37,61.332781,168.450994,892.166193,96.7
1251, 14:08:37,61.48548,169.138731,893.701705,96.7
1252, 14:08:37,61.583373,169.912524,897.389915,96.7
1253, 14:08:37,61.69401,170.530895,898.534801,96.7
1254, 14:08:37,61.852194,171.297585,902.291193,96.7
1255, 14:08:37,62.009312,172.029356,904.068182,96.7
1256, 14:08:37,62.081992,172.620975,905.978693,96.7
1257, 14:08:37,62.270439,173.476089,909.419034,96.7
1258, 14:08:37,62.35318,174.175071,911.584517,96.7
1259, 14:08:37,62.536813,175.036103,914.668324,96.7
1260, 14:08:38,62.677162,175.837831,916.93608,96.7
1261, 14:08:38,62.80958,176.610085,919.458807,96.7
1262, 14:08:38,62.919547,177.364228,922.029119,96.7
1263, 14:08:38,63.012547,178.035275,924.009943,96.7
1264, 14:08:38,63.132615,178.84813,926.387074,96.7
1265, 14:08:38,63.210069,179.35322,927.775568,96.7
1266, 14:08:38,63.32994,180.247396,930.575284,96.7
1267, 14:08:38,63.48548,181.161932,933.772727,96.7
1268, 14:08:38,63.624092,182.041312,936.389915,96.7
1269, 14:08:38,63.593671,182.261127,936.740057,96.7
1270, 14:08:38,62.666903,178.198153,922.024148,96.7
1271, 14:08:38,61.512153,171.860322,900.923295,96.7
1272, 14:08:38,61.006826,168.17294,889.225142,96.7
1273, 14:08:38,60.948509,167.15187,885.817472,96.7
1274, 14:08:38,60.863873,166.400805,884.37358,96.7
1275, 14:08:38,60.607086,164.990294,879.455966,96.7
1276, 14:08:38,60.450836,163.952888,877.035511,96.7
1277, 14:08:38,60.52762,164.147254,878.738636,96.7
1278, 14:08:38,60.927675,165.843158,884.803267,96.7
1279, 14:08:38,61.122001,166.835701,887.178977,96.7
1280, 14:08:38,61.073943,166.745975,887.004261,96.7
1281, 14:08:38,61.155303,167.030777,887.744318,96.7
1282, 14:08:38,61.252525,167.454545,889.633523,96.7
1283, 14:08:38,61.440065,168.415838,893.068892,96.7
1284, 14:08:38,61.635732,169.325284,895.931818,96.7
1285, 14:08:38,61.802872,170.271307,899.764205,96.7
1286, 14:08:38,61.930832,171.014086,902.081676,96.7
1287, 14:08:38,62.040404,171.734848,903.792614,96.7
1288, 14:08:38,62.156408,172.397254,906.065341,96.7
1289, 14:08:38,62.253512,172.976918,908.25071,96.7
1290, 14:08:39,62.379853,173.697325,910.039062,96.7
1291, 14:08:39,62.554096,174.539654,913.237926,96.7
1292, 14:08:39,62.651121,175.265862,915.90767,96.7
1293, 14:08:39,62.809896,176.102036,918.393466,96.7
1294, 14:08:39,62.931147,176.771662,920.129972,96.7
1295, 14:08:39,63.000513,177.455611,922.892756,96.7
1296, 14:08:39,63.17803,178.348011,925.349432,96.7
1297, 14:08:39,63.269137,179.049834,927.202415,96.7
1298, 14:08:39,63.418718,179.835701,930.340909,96.7
1299, 14:08:39,63.480232,180.310014,931.010653,96.7
1300, 14:08:39,62.871765,178.164062,922.112216,96.7
1301, 14:08:39,61.788116,172.713778,904.52983,96.7
1302, 14:08:39,61.22964,168.613636,891.417614,96.7
1303, 14:08:39,61.168718,167.653883,888.448864,96.7
1304, 14:08:39,61.144847,167.303385,888.087358,96.7
1305, 14:08:39,61.030461,166.479167,885.03125,96.7
1306, 14:08:39,60.928425,165.802794,882.410511,96.7
1307, 14:08:39,61.108428,166.408617,885.684659,96.7
1308, 14:08:39,61.441367,167.982244,891.421875,96.7
1309, 14:08:39,61.468474,168.269058,891.551847,96.7
1310, 14:08:39,61.436987,168.179806,891.573153,96.7
1311, 14:08:39,61.488281,168.387192,892.075994,96.7
1312, 14:08:39,61.630761,168.981297,894.680398,96.7
1313, 14:08:39,61.858152,170.029948,898.242188,96.7
1314, 14:08:39,62.001776,170.869437,901.304688,96.7
1315, 14:08:39,62.174479,171.728456,904.399148,96.7
1316, 14:08:39,62.300545,172.514323,906.316051,96.7
1317, 14:08:39,62.391335,173.074574,907.964489,96.7
1318, 14:08:39,62.482008,173.725379,910.423295,96.7
1319, 14:08:39,62.563526,174.193892,911.478693,96.7
1320, 14:08:40,62.684304,174.877723,914.414062,96.45
1321, 14:08:40,62.818932,175.514086,915.854403,96.45
1322, 14:08:40,62.958452,176.384351,918.786222,96.45
1323, 14:08:40,63.106692,177.315814,921.877841,96.45
1324, 14:08:40,63.232205,177.948035,924.622869,96.45
1325, 14:08:40,63.205729,178.235559,924.240057,96.45
1326, 14:08:40,62.414654,174.854285,911.489347,96.45
1327, 14:08:40,61.466461,169.621449,893.640625,96.45
1328, 14:08:40,61.091304,166.771544,885.703125,96.45
1329, 14:08:40,60.984888,165.938565,882.793324,96.45
1330, 14:08:40,60.911419,165.522609,882.013494,96.45
1331, 14:08:40,60.743174,164.552912,878.595881,96.45
1332, 14:08:40,60.615964,163.93312,876.53054,96.45
1333, 14:08:40,60.89678,164.919508,880.619318,96.45
1334, 14:08:40,61.261048,166.491004,886.332386,96.45
1335, 14:08:40,61.326862,166.999527,887.653409,96.45
1336, 14:08:40,61.301491,166.966027,887.293324,96.45
1337, 14:08:40,61.381392,167.28054,888.586648,96.45
1338, 14:08:40,61.576941,168.114347,891.723011,96.45
1339, 14:08:40,61.778527,169.097893,894.945312,96.45
1340, 14:08:40,61.955216,169.997277,898.017756,96.45
1341, 14:08:40,62.084517,170.734612,900.271307,96.45
1342, 14:08:40,62.231258,171.494437,903.941051,96.45
1343, 14:08:40,62.35468,172.200402,906.267756,96.45
1344, 14:08:40,62.439986,172.793916,907.700994,96.45
1345, 14:08:40,62.590515,173.487926,910.02983,96.45
1346, 14:08:40,62.691406,174.188329,912.178267,96.45
1347, 14:08:40,62.837831,174.921638,914.069602,96.45
1348, 14:08:40,62.988045,175.758641,917.551847,96.45
1349, 14:08:40,63.096117,176.479167,919.034091,96.45
1350, 14:08:41,63.250316,177.303504,922.278409,96.4
1351, 14:08:41,63.370107,177.932292,924.394886,96.4
1352, 14:08:41,63.505958,178.626776,926.539062,96.4
1353, 14:08:41,63.592369,179.317827,928.290483,96.4
1354, 14:08:41,63.689986,180.098366,930.581676,96.4
1355, 14:08:41,63.841619,180.890862,933.035511,96.4
1356, 14:08:41,63.809975,181.107008,933.417614,96.4
1357, 14:08:41,62.914299,177.529356,919.784091,96.4
1358, 14:08:41,61.839489,171.485795,899.25,96.4
1359, 14:08:41,61.395005,168.265033,888.774858,96.4
1360, 14:08:41,61.335859,167.420928,887.346591,96.4
1361, 14:08:41,61.233428,166.726326,884.900568,96.4
1362, 14:08:41,61.00943,165.536813,881.283381,96.4
1363, 14:08:41,60.818537,164.439512,877.034801,96.4
1364, 14:08:41,60.935843,164.747396,878.677557,96.4
1365, 14:08:41,61.308002,166.365767,884.890625,96.4
1366, 14:08:41,61.502131,167.326941,887.990057,96.4
1367, 14:08:41,61.526634,167.477628,888.328835,96.4
1368, 14:08:41,61.5698,167.642164,889.370028,96.4
1369, 14:08:41,61.719342,168.370147,891.022017,96.4
1370, 14:08:41,61.928977,169.37642,893.730114,96.4
1371, 14:08:41,62.122988,170.384588,898.381392,96.4
1372, 14:08:41,62.321102,171.297585,901.927557,96.4
1373, 14:08:41,62.395952,171.927438,902.837358,96.4
1374, 14:08:41,62.52908,172.71508,905.770597,96.4
1375, 14:08:41,62.696693,173.472183,908.912642,96.4
1376, 14:08:41,62.814236,174.230587,910.5,96.4
1377, 14:08:41,62.964449,175.123461,913.848722,96.4
1378, 14:08:41,63.051452,175.728693,915.443182,96.4
1379, 14:08:41,63.235559,176.668797,918.649148,96.4
1380, 14:08:42,63.317235,177.365057,920.329545,96.425
1381, 14:08:42,63.520991,178.271307,923.15625,96.425
1382, 14:08:42,63.639244,178.948035,925.730824,96.425
1383, 14:08:42,63.729364,179.618963,926.645597,96.425
1384, 14:08:42,63.858902,180.500473,929.517045,96.425
1385, 14:08:42,63.930003,181.290009,931.913352,96.425
1386, 14:08:42,64.024463,182.192708,934.838068,96.425
1387, 14:08:42,63.821102,181.817472,932.080966,96.425
1388, 14:08:42,62.892479,177.573745,916.766335,96.425
1389, 14:08:42,62.199495,173.308239,903.178977,96.425
1390, 14:08:42,61.912642,171.48035,897.441761,96.425
1391, 14:08:42,61.884667,171.060251,896.529119,96.425
1392, 14:08:42,61.749369,170.238163,893.5625,96.425
1393, 14:08:42,61.578283,169.108902,889.772727,96.425
1394, 14:08:42,61.512429,168.590791,888.658381,96.425
1395, 14:08:42,61.659051,169.347893,891.212358,96.425
1396, 14:08:42,61.963463,170.766809,897.319602,96.425
1397, 14:08:42,62.003196,171.056463,897.495028,96.425
1398, 14:08:42,61.973998,171.081558,897.145597,96.425
1399, 14:08:42,62.059225,171.457031,898.108665,96.425
1400, 14:08:42,62.191919,172.126894,901.059659,96.425
1401, 14:08:42,62.311632,172.981771,903.262784,96.425
1402, 14:08:42,62.431581,173.7384,906.049716,96.425
1403, 14:08:42,62.611229,174.508878,908.794744,96.425
1404, 14:08:42,62.718592,175.26089,911.207386,96.425
1405, 14:08:42,62.816288,175.849905,912.113636,96.425
1406, 14:08:42,62.930674,176.542495,914.965199,96.425
1407, 14:08:42,63.014244,177.05741,915.827415,96.425
1408, 14:08:42,63.132891,177.758996,918.477273,96.425
1409, 14:08:42,63.226286,178.385298,919.953835,96.425
1410, 14:08:43,63.299006,179.035748,921.896307,96.425
1411, 14:08:43,63.400608,179.913944,924.912642,96.425
1412, 14:08:43,63.470999,180.705137,926.847301,96.425
1413, 14:08:43,63.532276,181.39607,928.12358,96.425
1414, 14:08:43,63.47893,181.441998,928.421875,96.425
1415, 14:08:43,62.782749,178.409328,917.205966,96.425
1416, 14:08:43,62.074534,174.232599,903.273438,96.425
1417, 14:08:43,61.763771,172.084399,897.387074,96.425
1418, 14:08:43,61.73619,171.390862,895.984375,96.425
1419, 14:08:43,61.655658,170.937145,894.370028,96.425
1420, 14:08:43,61.524858,170.034328,891.416193,96.425
1421, 14:08:43,61.50584,169.790246,890.809659,96.425
1422, 14:08:43,61.756589,170.763139,895.183949,96.425
1423, 14:08:43,61.926807,171.695668,897.870028,96.425
1424, 14:08:43,61.830926,171.438329,896.817472,96.425
1425, 14:08:43,61.835069,171.400568,896.678977,96.425
1426, 14:08:43,61.859612,171.703835,898.160511,96.425
1427, 14:08:43,62.035945,172.318537,900.544744,96.425
1428, 14:08:43,62.174045,173.083688,903.135653,96.425
1429, 14:08:43,62.256668,173.707978,904.148438,96.425
1430, 14:08:43,62.406171,174.410748,906.992898,96.425
1431, 14:08:43,62.50363,174.965436,908.454545,96.425
1432, 14:08:43,62.578559,175.433594,910.129972,96.425
1433, 14:08:43,62.628433,175.896188,911.385653,96.425
1434, 14:08:43,62.689473,176.294271,913.035511,96.425
1435, 14:08:43,62.845486,177.113636,915.553977,96.425
1436, 14:08:43,62.943103,177.773438,916.995739,96.425
1437, 14:08:43,63.075718,178.562855,919.922585,96.425
1438, 14:08:43,63.124803,179.110204,921.158381,96.425
1439, 14:08:43,62.916272,178.733665,918.865057,96.425
1440, 14:08:44,62.097183,174.823272,905.65554,96.425
1441, 14:08:44,61.416982,170.797822,892.426136,96.425
1442, 14:08:44,61.201902,169.138849,887.821733,96.425
1443, 14:08:44,61.128551,168.282907,884.825284,96.425
1444, 14:08:44,61.004498,167.502131,883.112216,96.425
1445, 14:08:44,60.863597,166.637666,880.041903,96.425
1446, 14:08:44,60.92657,166.702533,881.161222,96.425
1447, 14:08:44,61.262784,168.011837,886.511364,96.425
1448, 14:08:44,61.292377,168.428741,888.03267,96.425
1449, 14:08:44,61.261364,168.384943,886.451705,96.425
1450, 14:08:44,61.258996,168.347538,886.872159,96.425
1451, 14:08:44,61.37938,168.850734,888.837358,96.425
1452, 14:08:44,61.560369,169.672112,892.18608,96.425
1453, 14:08:44,61.66572,170.394413,894.372159,96.425
1454, 14:08:44,61.817314,171.158381,896.859375,96.425
1455, 14:08:44,61.917811,171.750118,898.392756,96.425
1456, 14:08:44,62.011482,172.458688,901.053267,96.425
1457, 14:08:44,62.028291,172.887902,901.59446,96.425
1458, 14:08:44,62.172664,173.425663,904.110795,96.425
1459, 14:08:44,62.268663,173.965554,905.216619,96.425
1460, 14:08:44,62.339173,174.515152,907.704545,96.425
1461, 14:08:44,62.496528,175.268939,910.903409,96.425
1462, 14:08:44,62.62137,176.058712,912.286932,96.425
1463, 14:08:44,62.743924,176.78054,913.884943,96.425
1464, 14:08:44,62.740728,177.139796,915.247869,96.425
1465, 14:08:44,62.223406,175.165483,907.25142,96.425
1466, 14:08:44,61.260574,170.160038,890.965909,96.425
1467, 14:08:44,60.742582,166.774148,879.605114,96.425
1468, 14:08:44,60.600221,165.518939,876.568182,96.425
1469, 14:08:44,60.427399,164.526515,872.821023,96.425
1470, 14:08:45,60.226641,163.246686,869.338068,96.425
1471, 14:08:45,59.980942,162.10902,864.793324,96.425
1472, 14:08:45,60.091619,162.318892,867.055398,96.425
1473, 14:08:45,60.431739,163.825994,872.259943,96.425
1474, 14:08:45,60.615294,164.756866,876.271307,96.425
1475, 14:08:45,60.592093,164.764441,875.544034,96.425
1476, 14:08:45,60.626381,164.846946,875.985085,96.425
1477, 14:08:45,60.815814,165.560606,878.65625,96.425
1478, 14:08:45,60.970881,166.331203,882.120739,96.425
1479, 14:08:45,61.128827,167.299834,884.15696,96.425
1480, 14:08:45,61.235164,167.886364,886.340909,96.425
1481, 14:08:45,61.399463,168.713068,888.863636,96.425
1482, 14:08:45,61.514836,169.463542,891.338068,96.425
1483, 14:08:45,61.590159,169.944721,892.801847,96.425
1484, 14:08:45,61.713384,170.75947,895.732955,96.425
1485, 14:08:45,61.805595,171.354759,897.963778,96.425
1486, 14:08:45,61.948232,172.099432,900.795455,96.425
1487, 14:08:45,62.049953,172.808002,902.231534,96.425
1488, 14:08:45,62.11407,173.592685,904.189631,96.425
1489, 14:08:45,62.28997,174.357126,907.040483,96.425
1490, 14:08:45,62.373382,174.915601,908.433949,96.425
1491, 14:08:45,62.49633,175.773082,911.075994,96.425
1492, 14:08:45,62.581558,176.121094,912.482244,96.425
1493, 14:08:45,62.691998,177.006392,914.839489,96.425
1494, 14:08:45,62.812579,177.748343,916.913352,96.425
1495, 14:08:45,62.905777,178.476326,918.991477,96.425
1496, 14:08:45,62.706045,177.938684,916.916193,96.425
1497, 14:08:45,61.670455,173.366004,900.125,96.425
1498, 14:08:45,60.93533,168.664418,885.296165,96.425
1499, 14:08:45,60.694642,166.611861,878.952415,96.425
1500, 14:08:46,60.656842,165.967685,877.837358,96.425
1501, 14:08:46,60.458491,164.816761,874.116477,96.425
1502, 14:08:46,60.24925,163.688565,870.128551,96.425
1503, 14:08:46,60.167614,163.142992,867.911932,96.425
1504, 14:08:46,60.372356,163.859967,872.040483,96.425
1505, 14:08:46,60.736229,165.570904,877.240767,96.425
1506, 14:08:46,60.838029,166.135772,879.922585,96.425
1507, 14:08:46,60.857323,166.272727,879.519886,96.425
1508, 14:08:46,60.946496,166.763258,881.264205,96.425
1509, 14:08:46,61.096828,167.567945,884.240057,96.425
1510, 14:08:46,61.303307,168.539181,887.638494,96.425
1511, 14:08:46,61.433949,169.400805,890.620739,96.425
1512, 14:08:46,61.568971,170.290246,893.264205,96.425
1513, 14:08:46,61.671283,171.018584,894.847301,96.425
1514, 14:08:46,61.769413,171.72964,897.451705,96.425
1515, 14:08:46,61.89461,172.472656,899.93821,96.425
1516, 14:08:46,62.025568,173.148201,901.889205,96.425
1517, 14:08:46,62.162879,174.017519,904.551136,96.425
1518, 14:08:46,62.238281,174.72242,906.135653,96.425
1519, 14:08:46,62.345683,175.574455,909.236506,96.425
1520, 14:08:46,62.479482,176.416667,911.485795,96.425
1521, 14:08:46,62.598288,177.187855,913.564631,96.425
1522, 14:08:46,62.677872,177.955492,916.039773,96.425
1523, 14:08:46,62.780855,178.658381,918.132102,96.425
1524, 14:08:46,62.891414,179.393466,921.036932,96.425
1525, 14:08:46,62.956005,180.085819,922.105824,96.425
1526, 14:08:46,63.088699,180.819602,924.784091,96.425
1527, 14:08:46,63.155145,181.414299,926.286932,96.425
1528, 14:08:46,63.220092,182.0116,928.660511,96.425
1529, 14:08:46,63.359572,182.801728,930.756392,96.425
1530, 14:08:47,63.500789,183.469223,932.889205,96.45
1531, 14:08:47,63.604048,184.303622,934.96946,96.45
1532, 14:08:47,63.54289,184.286813,934.644176,96.45
1533, 14:08:47,62.664694,180.629025,920.802557,96.45
1534, 14:08:47,61.670652,175.405421,904.773438,96.45
1535, 14:08:47,61.344618,172.587831,895.859375,96.45
1536, 14:08:47,61.283381,171.704782,894.296875,96.45
1537, 14:08:47,61.138179,170.734612,891.208807,96.45
1538, 14:08:47,60.907907,169.346828,886.521307,96.45
1539, 14:08:47,60.727707,168.112571,882.584517,96.45
1540, 14:08:47,60.835227,168.359848,884.417614,96.45
1541, 14:08:47,61.14244,169.716146,889.40767,96.45
1542, 14:08:47,61.226286,170.376776,891.485085,96.45
1543, 14:08:47,61.180437,170.324929,891.222301,96.45
1544, 14:08:47,61.200797,170.386009,891.597301,96.45
1545, 14:08:47,61.346354,170.850616,892.828125,96.45
1546, 14:08:47,61.427162,171.518703,895.836648,96.45
1547, 14:08:47,61.624803,172.333215,899.022017,96.45
1548, 14:08:47,61.69259,173.11044,901.162642,96.45
1549, 14:08:47,61.849353,173.740294,903.086648,96.45
1550, 14:08:47,61.869949,174.388258,904.036932,96.45
1551, 14:08:47,61.932489,174.856652,905.887074,96.45
1552, 14:08:47,62.06538,175.536103,908.597301,96.45
1553, 14:08:47,62.13151,176.097183,909.546165,96.45
1554, 14:08:47,62.271031,176.868016,912.355824,96.45
1555, 14:08:47,62.352588,177.483428,914.514205,96.45
1556, 14:08:47,62.48836,178.258168,916.347301,96.45
1557, 14:08:47,62.586845,178.930516,918.588778,96.45
1558, 14:08:47,62.683988,179.575166,920.272017,96.45
1559, 14:08:47,62.808002,180.270597,922.896307,96.45
1560, 14:08:48,62.87792,180.757339,924.350852,96.45
1561, 14:08:48,62.978654,181.37062,925.476562,96.45
1562, 14:08:48,63.05378,181.843632,928.075994,96.45
1563, 14:08:48,63.15337,182.473366,929.567472,96.45
1564, 14:08:48,63.288392,183.108546,932.227983,96.45
1565, 14:08:48,63.10902,182.689749,929.615767,96.45
1566, 14:08:48,62.135574,178.361742,914.238636,96.45
1567, 14:08:48,61.252841,173.319129,898.025568,96.45
1568, 14:08:48,60.998698,171.038234,892.536222,96.45
1569, 14:08:48,60.988676,170.245857,890.642756,96.45
1570, 14:08:48,60.850694,169.38589,888.880682,96.45
1571, 14:08:48,60.665601,168.127486,884.077415,96.45
1572, 14:08:48,60.630524,167.668087,883.741477,96.45
1573, 14:08:48,60.928149,168.758878,888.178267,96.45
1574, 14:08:48,61.055674,169.550545,890.297585,96.45
1575, 14:08:48,61.026002,169.421757,889.414062,96.45
1576, 14:08:48,61.005919,169.271544,889.089489,96.45
1577, 14:08:48,61.075324,169.498698,889.850142,96.45
1578, 14:08:48,61.227509,170.293324,893.007102,96.45
1579, 14:08:48,61.387074,171.004498,895.62642,96.45
1580, 14:08:48,61.54727,171.876657,898.575284,96.45
1581, 14:08:48,61.644768,172.541312,900.492188,96.45
1582, 14:08:48,61.762153,173.150568,902.849432,96.45
1583, 14:08:48,61.877367,173.660511,904.678977,96.45
1584, 14:08:48,61.95202,174.205492,906.551136,96.45
1585, 14:08:48,62.032236,174.801255,907.421165,96.45
1586, 14:08:48,62.133602,175.404119,909.975852,96.45
1587, 14:08:48,62.268624,176.233902,912.701705,96.45
1588, 14:08:48,62.390152,176.884943,914.838068,96.45
1589, 14:08:48,62.459438,177.539773,916.588068,96.45
1590, 14:08:49,62.583846,178.257221,918.818892,96.45
1591, 14:08:49,62.682015,178.975024,921.182528,96.45
1592, 14:08:49,62.809856,179.722183,923.605824,96.45
1593, 14:08:49,62.887468,180.170455,924.8125,96.45
1594, 14:08:49,62.719223,179.673769,922.178977,96.45
1595, 14:08:49,61.766651,175.232718,906.862216,96.45
1596, 14:08:49,60.86557,170.184304,891.114347,96.45
1597, 14:08:49,60.615925,167.69768,883.52983,96.45
1598, 14:08:49,60.585188,166.821851,881.039062,96.45
1599, 14:08:49,60.440459,165.939276,878.527699,96.45
1600, 14:08:49,60.234848,164.719223,873.994318,96.45
1601, 14:08:49,60.1555,164.053622,872.227983,96.45
1602, 14:08:49,60.388021,164.840199,877.007102,96.45
1603, 14:08:49,60.706913,166.25142,881.278409,96.45
1604, 14:08:49,60.738518,166.431463,881.901278,96.45
1605, 14:08:49,60.711016,166.445076,881.670455,96.45
1606, 14:08:49,60.81321,166.803741,883.288352,96.45
1607, 14:08:49,60.98619,167.562737,886.18892,96.45
1608, 14:08:49,61.161222,168.420691,889.228693,96.45
1609, 14:08:49,61.33432,169.461293,892.381392,96.45
1610, 14:08:49,61.420691,170.036222,894.663352,96.45
1611, 14:08:49,61.518111,170.597893,895.678267,96.45
1612, 14:08:49,61.6119,171.381155,897.414773,96.45
1613, 14:08:49,61.803109,172.1366,900.96733,96.45
1614, 14:08:49,61.909446,172.882694,903.475142,96.45
1615, 14:08:49,62.039931,173.455492,905.701705,96.45
1616, 14:08:49,62.165522,174.166548,907.902699,96.45
1617, 14:08:49,62.292771,174.911932,910.017045,96.45
1618, 14:08:49,62.406447,175.69188,913.191051,96.45
1619, 14:08:49,62.562934,176.38151,915.175426,96.45
1620, 14:08:50,62.672467,177.187382,918.090199,96.45
1621, 14:08:50,62.781487,177.960464,919.50142,96.45
1622, 14:08:50,62.860361,178.570668,921.736506,96.45
1623, 14:08:50,63.001065,179.3067,924.269176,96.45
1624, 14:08:50,63.056463,179.729522,925.257812,96.45
1625, 14:08:50,63.182173,180.498224,927.526278,96.45
1626, 14:08:50,63.30157,181.211056,929.737926,96.45
1627, 14:08:50,63.459754,181.998106,932.974432,96.45
1628, 14:08:50,63.452652,182.223011,933.025568,96.45
1629, 14:08:50,62.579624,178.63518,919.271307,96.45
1630, 14:08:50,61.403449,172.304096,899.401278,96.45
1631, 14:08:50,60.902028,168.175781,886.387074,96.45
1632, 14:08:50,60.847143,167.061316,883.484375,96.45
1633, 14:08:50,60.72459,166.195549,880.017045,96.45
1634, 14:08:50,60.534485,164.957623,876.870739,96.45
1635, 14:08:50,60.322522,163.695786,873.035511,96.45
1636, 14:08:50,60.363163,163.657197,872.78125,96.45
1637, 14:08:50,60.735874,165.112926,879.25142,96.45
1638, 14:08:50,60.936119,166.170573,882.997869,96.45
1639, 14:08:50,60.939512,166.31901,882.996449,96.45
1640, 14:08:50,60.970131,166.382457,883.229403,96.45
1641, 14:08:50,61.126302,167.083925,885.301847,96.45
1642, 14:08:50,61.323745,167.943774,888.31321,96.45
1643, 14:08:50,61.429451,168.750947,889.9375,96.45
1644, 14:08:50,61.656921,169.702296,894.921165,96.45
1645, 14:08:50,61.745818,170.261127,897.00142,96.45
1646, 14:08:50,61.880327,171.037287,899.689631,96.45
1647, 14:08:50,61.988794,171.733428,901.519886,96.45
1648, 14:08:50,62.099945,172.405421,903.301847,96.45
1649, 14:08:50,62.270912,173.068419,905.887784,96.45
1650, 14:08:51,62.332307,173.678741,907.899148,96.45
1651, 14:08:51,62.495344,174.55232,910.583807,96.45
1652, 14:08:51,62.620423,175.270833,913.528409,96.45
1653, 14:08:51,62.750276,176.059541,915.422585,96.45
1654, 14:08:51,62.887192,176.817353,918.193892,96.45
1655, 14:08:51,62.97893,177.509233,919.524148,96.45
1656, 14:08:51,63.099313,178.137902,921.759233,96.45
1657, 14:08:51,63.164141,178.68892,923.042614,96.45
1658, 14:08:51,63.281881,179.417614,926.582386,96.45
1659, 14:08:51,63.374842,180.09233,927.457386,96.45
1660, 14:08:51,63.504893,180.899148,930.105114,96.45
1661, 14:08:51,63.585622,181.562263,932.143466,96.45
1662, 14:08:51,63.276081,180.510062,927.381392,96.45
1663, 14:08:51,62.126342,175.049953,909.580966,96.45
1664, 14:08:51,61.263534,169.332268,891.237926,96.45
1665, 14:08:51,61.019452,167.095289,884.682528,96.45
1666, 14:08:51,60.95711,166.462713,883.299006,96.45
1667, 14:08:51,60.776476,165.44401,879.334517,96.45
1668, 14:08:51,60.579664,164.240885,875.740767,96.45
1669, 14:08:51,60.469973,163.528291,872.931108,96.45
1670, 14:08:51,60.734927,164.529593,877.68892,96.45
1671, 14:08:51,61.067314,166.089725,882.765625,96.45
1672, 14:08:51,61.149384,166.585938,884.308239,96.45
1673, 14:08:51,61.144413,166.625947,884.292614,96.45
1674, 14:08:51,61.183988,167.008404,884.556108,96.45
1675, 14:08:51,61.382615,167.754853,888.139915,96.45
1676, 14:08:51,61.562618,168.669863,891.536222,96.45
1677, 14:08:51,61.753946,169.568655,894.923295,96.45
1678, 14:08:51,61.868726,170.235914,896.779119,96.45
1679, 14:08:51,62.011403,171.07919,899.392756,96.45
1680, 14:08:52,62.14315,171.79214,901.980114,96.7
1681, 14:08:52,62.225734,172.483546,904.037642,96.7
1682, 14:08:52,62.343908,173.139678,906.565341,96.7
1683, 14:08:52,62.445904,173.690933,908.139915,96.7
1684, 14:08:52,62.571181,174.47964,910.517045,96.7
1685, 14:08:52,62.669823,175.119792,912.465909,96.7
1686, 14:08:52,62.841619,176.026278,916.22017,96.7
1687, 14:08:52,62.988636,176.743371,919.173295,96.7
1688, 14:08:52,63.09813,177.456795,920.618608,96.7
1689, 14:08:52,63.190735,178.243608,922.879261,96.7
1690, 14:08:52,63.252841,178.816288,923.892045,96.7
1691, 14:08:52,63.352549,179.44117,925.774858,96.7
1692, 14:08:52,63.445312,180.089252,927.930398,96.7
1693, 14:08:52,63.563526,180.887547,930.669034,96.7
1694, 14:08:52,63.645084,181.672467,932.702415,96.7
1695, 14:08:52,63.553307,181.620147,931.757812,96.7
1696, 14:08:52,62.598879,177.350142,916.521307,96.7
1697, 14:08:52,61.557331,171.129853,897.25071,96.7
1698, 14:08:52,61.140625,167.937973,887.536932,96.7
1699, 14:08:52,61.068695,167.070194,884.611506,96.7
1700, 14:08:52,61.040009,166.649858,883.37358,96.7
1701, 14:08:52,60.851326,165.609375,879.505682,96.7
1702, 14:08:52,60.725142,164.898911,877.634943,96.7
1703, 14:08:52,61.013179,165.896544,881.757102,96.7
1704, 14:08:52,61.280698,167.16785,886.535511,96.7
1705, 14:08:52,61.264796,167.405185,885.970881,96.7
1706, 14:08:52,61.236151,167.248698,886.176847,96.7
1707, 14:08:52,61.312895,167.493608,886.705966,96.7
1708, 14:08:52,61.451389,168.051136,889.9375,96.7
1709, 14:08:52,61.683712,169.107955,893.525568,96.7
1710, 14:08:53,61.855784,169.974077,895.867188,96.45
1711, 14:08:53,61.924716,170.553504,897.860795,96.45
1712, 14:08:53,62.076626,171.362453,900.464489,96.45
1713, 14:08:53,62.157276,171.888021,902.671875,96.45
1714, 14:08:53,62.265586,172.47384,904.737926,96.45
1715, 14:08:53,62.368292,173.032434,906.12358,96.45
1716, 14:08:53,62.475892,173.657315,907.452415,96.45
1717, 14:08:53,62.617148,174.40258,911.057528,96.45
1718, 14:08:53,62.749369,175.070549,912.616477,96.45
1719, 14:08:53,62.87279,175.899148,915.0625,96.45
1720, 14:08:53,63.01018,176.585938,917.362216,96.45
1721, 14:08:53,63.082505,177.133878,918.899858,96.45
1722, 14:08:53,63.207505,177.828007,921.851562,96.45
1723, 14:08:53,63.262745,178.299124,921.541903,96.45
1724, 14:08:53,63.380997,179.018939,924.252841,96.45
1725, 14:08:53,63.458254,179.590199,926.012784,96.45
1726, 14:08:53,63.594145,180.222775,929.149148,96.45
1727, 14:08:53,63.703046,180.985559,931.00142,96.45
1728, 14:08:53,63.709793,181.636009,931.861506,96.45
1729, 14:08:53,63.754419,182.043561,933.303977,96.45
1730, 14:08:53,62.931384,178.724077,920.580256,96.45
1731, 14:08:53,61.751065,172.102154,899.547585,96.45
1732, 14:08:53,61.139678,167.812027,886.3125,96.45
1733, 14:08:53,60.972222,166.392992,881.440341,96.45
1734, 14:08:53,60.922822,165.787405,880.301136,96.45
1735, 14:08:53,60.693142,164.508404,875.612926,96.45
1736, 14:08:53,60.451902,163.395952,872.404119,96.45
1737, 14:08:53,60.511916,163.384706,872.674716,96.45
1738, 14:08:53,60.878512,164.852865,878.384233,96.45
1739, 14:08:53,61.114662,165.787169,881.87642,96.45
1740, 14:08:54,61.081439,165.761837,881.159091,96.45
1741, 14:08:54,61.121883,165.923887,882.384233,96.45
1742, 14:08:54,61.214489,166.423295,883.764205,96.45
1743, 14:08:54,61.444523,167.338778,886.859375,96.45
1744, 14:08:54,61.662169,168.424479,891.288352,96.45
1745, 14:08:54,61.774818,169.229285,892.691051,96.45
1746, 14:08:54,61.938013,169.923887,895.307528,96.45
1747, 14:08:54,62.004656,170.411695,897.240057,96.45
1748, 14:08:54,62.146386,171.200994,899.899148,96.45
1749, 14:08:54,62.250829,171.775687,901.404119,96.45
1750, 14:08:54,62.397609,172.548887,905.080256,96.45
1751, 14:08:54,62.513336,173.217093,907.288352,96.45
1752, 14:08:54,62.630287,173.985559,909.444602,96.45
1753, 14:08:54,62.797309,174.781605,911.931108,96.45
1754, 14:08:54,62.9055,175.457031,914.154119,96.45
1755, 14:08:54,63.049953,176.290009,916.583807,96.45
1756, 14:08:54,63.124684,176.794508,917.761364,96.45
1757, 14:08:54,63.216659,177.457741,920.178267,96.45
1758, 14:08:54,63.346788,178.174361,922.520597,96.45
1759, 14:08:54,63.491122,178.977154,924.46804,96.45
1760, 14:08:54,63.623185,179.730824,927.629261,96.45
1761, 14:08:54,63.565578,179.927794,925.944602,96.45
1762, 14:08:54,62.67006,176.355824,914.728693,96.45
1763, 14:08:54,61.449061,170.085346,893.046165,96.45
1764, 14:08:54,60.946772,166.278764,881.007812,96.45
1765, 14:08:54,60.760851,165.055753,876.757812,96.45
1766, 14:08:54,60.648003,164.188802,874.729403,96.45
1767, 14:08:54,60.396859,163.013494,870.401989,96.45
1768, 14:08:54,60.201823,161.859257,867.141335,96.45
1769, 14:08:54,60.231574,161.896899,868.085938,96.45
1770, 14:08:55,60.570904,163.291312,873.335938,96.45
1771, 14:08:55,60.853614,164.558949,877.59517,96.45
1772, 14:08:55,60.836174,164.669981,877.352273,96.45
1773, 14:08:55,60.869279,164.854995,877.18679,96.45
1774, 14:08:55,61.041667,165.523201,880.744318,96.45
1775, 14:08:55,61.20861,166.274976,882.754972,96.45
1776, 14:08:55,61.403725,167.354167,887.176136,96.45
1777, 14:08:55,61.547664,168.165246,888.889205,96.45
1778, 14:08:55,61.70494,168.957623,891.856534,96.45
1779, 14:08:55,61.768624,169.539299,893.676136,96.45
1780, 14:08:55,61.922704,170.32777,896.384233,96.45
1781, 14:08:55,62.03488,170.909091,898.329545,96.45
1782, 14:08:55,62.14315,171.569602,900.036932,96.45
1783, 14:08:55,62.282355,172.431818,902.997159,96.45
1784, 14:08:55,62.396307,173.112689,905.431818,96.45
1785, 14:08:55,62.532,173.974313,908.073153,96.45
1786, 14:08:55,62.644452,174.721709,910.418324,96.45
1787, 14:08:55,62.769137,175.411577,911.898438,96.45
1788, 14:08:55,62.939118,176.211293,915.191051,96.45
1789, 14:08:55,63.011521,176.679451,916.795455,96.45
1790, 14:08:55,63.14102,177.527225,919.291193,96.45
1791, 14:08:55,63.230232,178.060014,920.044744,96.45
1792, 14:08:55,63.330335,178.763258,922.823864,96.45
1793, 14:08:55,63.434304,179.63151,924.683949,96.45
1794, 14:08:55,63.535038,180.331913,927.403409,96.45
1795, 14:08:55,63.388771,180.245384,925.696733,96.45
1796, 14:08:55,62.279987,175.565341,909.261364,96.45
1797, 14:08:55,61.270478,169.544389,889.808949,96.45
1798, 14:08:55,60.889244,166.421046,879.497869,96.45
1799, 14:08:55,60.806463,165.471473,877.095881,96.45
1800, 14:08:56,60.637468,164.596117,873.869318,96.45
1801, 14:08:56,60.362216,163.267045,868.414773,96.45
1802, 14:08:56,60.191485,162.305043,866.682528,96.45
1803, 14:08:56,60.247041,162.526634,867.458097,96.45
1804, 14:08:56,60.597696,163.994792,873.190341,96.45
1805, 14:08:56,60.702652,164.691288,874.869318,96.45
1806, 14:08:56,60.689197,164.695904,874.911222,96.45
1807, 14:08:56,60.72238,164.847538,875.338068,96.45
1808, 14:08:56,60.833807,165.362689,877.286932,96.45
1809, 14:08:56,61.023319,166.264086,879.962358,96.45
1810, 14:08:56,61.136521,167.010417,882.542614,96.45
1811, 14:08:56,61.298138,167.83428,885.528409,96.45
1812, 14:08:56,61.429175,168.533262,887.753551,96.45
1813, 14:08:56,61.524384,169.201941,890.007102,96.45
1814, 14:08:56,61.642874,169.850024,892.25071,96.45
1815, 14:08:56,61.700284,170.306345,893.701705,96.45
1816, 14:08:56,61.823509,171.021188,896.084517,96.45
1817, 14:08:56,61.883602,171.5509,897.151989,96.45
1818, 14:08:56,62.034604,172.387902,900.759233,96.45
1819, 14:08:56,62.16714,173.140625,902.877841,96.45
1820, 14:08:56,62.27107,173.808949,904.78267,96.45
1821, 14:08:56,62.401831,174.496212,906.284091,96.45
1822, 14:08:56,62.498619,175.160156,909.330256,96.45
1823, 14:08:56,62.580256,175.680634,910.254261,96.45
1824, 14:08:56,62.63443,176.229048,912.470881,96.45
1825, 14:08:56,62.76164,176.896188,913.939631,96.45
1826, 14:08:56,62.875473,177.57339,916.431818,96.45
1827, 14:08:56,62.936356,178.328954,918.647017,96.45
1828, 14:08:56,62.909407,178.6875,919.34375,96.45
1829, 14:08:56,62.092685,175.527107,907.514915,96.45
1830, 14:08:57,61.019097,169.655777,887.875,96.45
1831, 14:08:57,60.483152,165.637902,874.299006,96.45
1832, 14:08:57,60.40262,164.513258,872.011364,96.45
1833, 14:08:57,60.328401,163.971946,869.516335,96.45
1834, 14:08:57,60.145597,163.071259,867.038352,96.45
1835, 14:08:57,59.972735,162.122751,863.262074,96.45
1836, 14:08:57,60.083136,162.507457,865.544744,96.45
1837, 14:08:57,60.413037,163.87642,871.375,96.45
1838, 14:08:57,60.428701,164.090554,871.929688,96.45
1839, 14:08:57,60.39611,163.998935,870.862926,96.45
1840, 14:08:57,60.382852,164.067116,871.064631,96.45
1841, 14:08:57,60.515112,164.590317,872.976562,96.45
1842, 14:08:57,60.697088,165.435014,876.300426,96.45
1843, 14:08:57,60.835267,166.265743,878.293324,96.45
1844, 14:08:57,60.977667,166.941525,881.285511,96.45
1845, 14:08:57,61.066012,167.554569,883.054688,96.45
1846, 14:08:57,61.163313,168.250829,885.402699,96.45
1847, 14:08:57,61.193971,168.747633,886.536932,96.45
1848, 14:08:57,61.331282,169.314394,889.184659,96.45
1849, 14:08:57,61.429135,169.895833,890.460227,96.45
1850, 14:08:57,61.509193,170.460819,892.472301,96.45
1851, 14:08:57,61.639362,171.241477,895.420455,96.45
1852, 14:08:57,61.705926,171.847893,897.31179,96.45
1853, 14:08:57,61.830019,172.642519,898.980114,96.45
1854, 14:08:57,61.966856,173.25142,901.917614,96.45
1855, 14:08:57,62.0683,174.023082,903.806108,96.45
1856, 14:08:57,62.100221,174.469223,905.713068,96.45
1857, 14:08:57,61.477036,172.210938,895.995739,96.45
1858, 14:08:57,60.409249,166.684659,877.207386,96.45
1859, 14:08:57,59.781171,162.492661,863.606534,96.45
1860, 14:08:58,59.603693,161.050189,859.980114,96.7
1861, 14:08:58,59.499171,160.435488,857.098722,96.7
1862, 14:08:58,59.304964,159.482126,854.810369,96.7
1863, 14:08:58,59.104482,158.46875,850.647727,96.7
1864, 14:08:58,59.169429,158.569839,852.65483,96.7
1865, 14:08:58,59.514402,160.015743,857.699574,96.7
1866, 14:08:58,59.625158,160.780777,859.988636,96.7
1867, 14:08:58,59.645163,160.85026,860.348722,96.7
1868, 14:08:58,59.633759,160.920218,860.575284,96.7
1869, 14:08:58,59.795967,161.526634,862.25071,96.7
1870, 14:08:58,59.974708,162.34884,865.039062,96.7
1871, 14:08:58,60.153212,163.394295,867.879972,96.7
1872, 14:08:58,60.35101,164.241951,871.9375,96.7
1873, 14:08:58,60.41355,164.819247,873.421165,96.7
1874, 14:08:58,60.549282,165.563565,876.870028,96.7
1875, 14:08:58,60.58215,166.144176,876.924716,96.7
1876, 14:08:58,60.711845,166.847183,880.270597,96.7
1877, 14:08:58,60.817669,167.454901,881.820312,96.7
1878, 14:08:58,60.940814,168.222538,884.866477,96.7
1879, 14:08:58,61.063802,169.001539,886.381392,96.7
1880, 14:08:58,61.164141,169.661932,889.048295,96.7
1881, 14:08:58,61.333767,170.601681,893.615767,96.7
1882, 14:08:58,61.396465,171.104167,894.889205,96.7
1883, 14:08:58,61.551452,171.993371,896.943182,96.7
1884, 14:08:58,61.59304,172.699574,899.461648,96.7
1885, 14:08:58,61.71658,173.314986,901.543324,96.7
1886, 14:08:58,61.370068,172.351681,896.814631,96.7
1887, 14:08:58,60.211214,166.982599,876.793324,96.7
1888, 14:08:58,59.369437,161.579901,859.90554,96.7
1889, 14:08:58,59.005366,159.309659,852.1875,96.7
1890, 14:08:59,58.912405,158.485322,851.255682,96.7
1891, 14:08:59,58.688447,157.451705,846.963068,96.7
1892, 14:08:59,58.436711,156.309186,842.960227,96.7
1893, 14:08:59,58.309817,155.687027,840.292614,96.7
1894, 14:08:59,58.525923,156.431463,844.546165,96.7
1895, 14:08:59,58.934107,158.262074,850.927557,96.7
1896, 14:08:59,58.984138,158.771544,852.27983,96.7
1897, 14:08:59,59.002091,158.85902,851.932528,96.7
1898, 14:08:59,59.060922,159.223011,853.90625,96.7
1899, 14:08:59,59.259351,160.07777,857.174006,96.7
1900, 14:08:59,59.450521,161.114347,861.055398,96.7
1901, 14:08:59,59.604719,161.950994,863.214489,96.7
1902, 14:08:59,59.800663,162.976799,865.849432,96.7
1903, 14:08:59,59.866832,163.580137,868.330256,96.7
1904, 14:08:59,59.974708,164.259825,870.200994,96.7
1905, 14:08:59,60.082505,164.987098,872.490767,96.7
1906, 14:08:59,60.156329,165.69768,874.481534,96.7
1907, 14:08:59,60.283775,166.500947,877.576705,96.7
1908, 14:08:59,60.403409,167.17661,880.153409,96.7
1909, 14:08:59,60.533815,167.969815,882.338778,96.7
1910, 14:08:59,60.630445,168.812737,884.901989,96.7
1911, 14:08:59,60.757063,169.592211,887.399858,96.7
1912, 14:08:59,60.85322,170.368845,890.346591,96.7
1913, 14:08:59,60.944523,170.970881,891.964489,96.7
1914, 14:08:59,61.081439,171.778883,894.832386,96.7
1915, 14:08:59,61.150174,172.361506,896.299716,96.7
1916, 14:08:59,61.187461,172.937382,897.428267,96.7
1917, 14:08:59,61.376026,173.7384,901.705966,96.7
1918, 14:08:59,61.480745,174.59233,903.701705,96.7
1919, 14:08:59,61.560961,175.18099,904.560369,96.7
1920, 14:09:00,60.8561,172.651634,895.185369,96.675
1921, 14:09:00,59.527107,166.362571,872.340199,96.675
1922, 14:09:00,58.850497,161.31617,857.786222,96.675
1923, 14:09:00,58.694563,159.560014,851.252131,96.675
1924, 14:09:00,58.604285,158.716738,850.013494,96.675
1925, 14:09:00,58.360795,157.412879,845.485795,96.675
1926, 14:09:00,58.129932,156.237808,841.475142,96.675
1927, 14:09:00,58.087792,155.915838,840.017756,96.675
1928, 14:09:00,58.381866,157.158381,845.419034,96.675
1929, 14:09:00,58.722459,158.627604,850.62358,96.675
1930, 14:09:00,58.686237,158.852746,851.196023,96.675
1931, 14:09:00,58.714962,158.961648,851.434659,96.675
1932, 14:09:00,58.786143,159.44697,852.636364,96.675
1933, 14:09:00,58.965633,160.269058,855.049006,96.675
1934, 14:09:00,59.136482,161.16134,859.74929,96.675
1935, 14:09:00,59.248303,162.012902,861.051847,96.675
1936, 14:09:00,59.380366,162.863636,863.752841,96.675
1937, 14:09:00,59.46295,163.602865,865.929688,96.675
1938, 14:09:00,59.542653,164.326349,868.040483,96.675
1939, 14:09:00,59.650292,164.925308,870.727983,96.675
1940, 14:09:00,59.707189,165.552438,871.823153,96.675
1941, 14:09:00,59.855114,166.394413,874.59375,96.675
1942, 14:09:00,59.953559,167.037287,876.902699,96.675
1943, 14:09:00,60.071693,167.81688,879.392756,96.675
1944, 14:09:00,60.154277,168.491714,881.742898,96.675
1945, 14:09:00,60.303425,169.262547,884.734375,96.675
1946, 14:09:00,60.401634,170.038234,886.334517,96.675
1947, 14:09:00,60.516375,170.660393,888.226562,96.675
1948, 14:09:00,60.664457,171.358902,891.798295,96.675
1949, 14:09:00,60.722341,171.932173,892.939631,96.675
1950, 14:09:01,60.838542,172.570549,895.596591,96.7
1951, 14:09:01,60.963108,173.375592,897.585938,96.7
1952, 14:09:01,61.060567,173.981889,900.044744,96.7
1953, 14:09:01,61.154474,174.861151,901.550426,96.7
1954, 14:09:01,61.194681,175.143703,903.140625,96.7
1955, 14:09:01,60.324653,171.786932,889.508523,96.7
1956, 14:09:01,58.990294,165.229403,867.362216,96.7
1957, 14:09:01,58.399779,160.944602,853.434659,96.7
1958, 14:09:01,58.353614,159.5509,850.771307,96.7
1959, 14:09:01,58.272293,158.802675,848.185369,96.7
1960, 14:09:01,58.083846,157.804569,844.702415,96.7
1961, 14:09:01,57.938565,156.751302,841.40554,96.7
1962, 14:09:01,58.119673,157.218395,844.057528,96.7
1963, 14:09:01,58.46149,158.815341,849.860795,96.7
1964, 14:09:01,58.490451,159.326941,850.774148,96.7
1965, 14:09:01,58.451389,159.244792,849.920455,96.7
1966, 14:09:01,58.471788,159.298887,850.972301,96.7
1967, 14:09:01,58.627999,160.008996,853.534091,96.7
1968, 14:09:01,58.750079,160.759233,856.37642,96.7
1969, 14:09:01,58.8939,161.688329,858.757812,96.7
1970, 14:09:01,58.999921,162.570312,862.299716,96.7
1971, 14:09:01,59.097143,163.264441,863.768466,96.7
1972, 14:09:01,59.200876,164.072798,866.706676,96.7
1973, 14:09:01,59.256155,164.483902,867.269886,96.7
1974, 14:09:01,59.379538,165.28776,870.331676,96.7
1975, 14:09:01,59.456005,165.811671,871.975142,96.7
1976, 14:09:01,59.58286,166.583807,874.102273,96.7
1977, 14:09:01,59.705848,167.207031,876.239347,96.7
1978, 14:09:01,59.815854,167.893584,878.824574,96.7
1979, 14:09:01,59.98035,168.767756,881.637784,96.7
1980, 14:09:02,60.096867,169.469105,884.166903,96.7
1981, 14:09:02,60.224629,170.180043,886.026278,96.7
1982, 14:09:02,60.157,170.231889,885.564631,96.7
1983, 14:09:02,59.308199,166.810014,872.377131,96.7
1984, 14:09:02,58.116477,161.13447,853.178977,96.7
1985, 14:09:02,57.738715,157.69768,842.774148,96.7
1986, 14:09:02,57.728417,156.692353,839.827415,96.7
1987, 14:09:02,57.648793,156.054806,838.101562,96.7
1988, 14:09:02,57.462516,155.102036,835.276989,96.7
1989, 14:09:02,57.369634,154.460701,833.639205,96.7
1990, 14:09:02,57.618332,155.327533,836.729403,96.7
1991, 14:09:02,57.98256,156.985085,842.495739,96.7
1992, 14:09:02,57.991083,157.431581,844.078125,96.7
1993, 14:09:02,57.969421,157.506274,843.222301,96.7
1994, 14:09:02,58.004025,157.691998,845.299716,96.7
1995, 14:09:02,58.214055,158.529948,847.841619,96.7
1996, 14:09:02,58.36916,159.55161,851.360795,96.7
1997, 14:09:02,58.511285,160.586411,854.731534,96.7
1998, 14:09:02,58.622396,161.412642,857.56108,96.7
1999, 14:09:02,58.696338,162.148674,858.377841,96.7
2000, 14:09:02,58.834635,162.840554,861.299006,96.7
2001, 14:09:02,58.91063,163.588897,863.942472,96.7
2002, 14:09:02,59.042456,164.256629,866.377841,96.7
2003, 14:09:02,59.119713,164.830729,868.18892,96.7
2004, 14:09:02,59.26523,165.665009,870.84233,96.7
2005, 14:09:02,59.434383,166.429569,873.040483,96.7
2006, 14:09:02,59.569444,167.294981,876.434659,96.7
2007, 14:09:02,59.720565,168.028646,878.933239,96.7
2008, 14:09:02,59.814315,168.772491,881.384943,96.7
2009, 14:09:02,59.951231,169.519886,883.690341,96.7
2010, 14:09:03,60.06396,170.1933,885.852983,96.45
2011, 14:09:03,60.169665,170.852746,887.946023,96.45
2012, 14:09:03,60.239347,171.469934,889.069602,96.45
2013, 14:09:03,60.3241,171.99929,891.453125,96.45
2014, 14:09:03,60.536143,172.984375,894.693182,96.45
2015, 14:09:03,60.613755,173.665601,896.34304,96.45
2016, 14:09:03,60.624961,173.879616,897.004972,96.45
2017, 14:09:03,59.506116,169.565696,880.712358,96.45
2018, 14:09:03,58.169902,162.683002,857.430398,96.45
2019, 14:09:03,57.544981,158.635417,844.215909,96.45
2020, 14:09:03,57.514244,157.253433,841.551847,96.45
2021, 14:09:03,57.428504,156.20928,837.644886,96.45
2022, 14:09:03,57.167337,154.864702,832.671165,96.45
2023, 14:09:03,56.992148,153.660156,829.449574,96.45
2024, 14:09:03,57.020873,153.600971,829.378551,96.45
2025, 14:09:03,57.422822,155.129261,836.232955,96.45
2026, 14:09:03,57.676847,156.394176,839.961648,96.45
2027, 14:09:03,57.654396,156.586293,839.887074,96.45
2028, 14:09:03,57.692235,156.839015,840.982955,96.45
2029, 14:09:03,57.769926,157.394531,842.648438,96.45
2030, 14:09:03,57.940814,158.342803,846.701705,96.45
2031, 14:09:03,58.107994,159.283736,849.085938,96.45
2032, 14:09:03,58.240451,160.272017,853.015625,96.45
2033, 14:09:03,58.32773,161.098248,854.475852,96.45
2034, 14:09:03,58.412247,161.713542,857.957386,96.45
2035, 14:09:03,58.553464,162.479995,859.325994,96.45
2036, 14:09:03,58.626184,163.132812,861.441761,96.45
2037, 14:09:03,58.791943,164.042022,864.235085,96.45
2038, 14:09:03,58.928977,164.69697,866.8125,96.45
2039, 14:09:03,59.049006,165.420218,868.711648,96.45
2040, 14:09:04,59.201349,166.259825,871.240767,96.45
2041, 14:09:04,59.352865,166.927912,874.007812,96.45
2042, 14:09:04,59.506274,167.732836,876.851562,96.45
2043, 14:09:04,59.616043,168.438565,878.966619,96.45
2044, 14:09:04,59.754932,169.323035,882.074574,96.45
2045, 14:09:04,59.859336,170.027344,883.627131,96.45
2046, 14:09:04,59.967408,170.809422,885.731534,96.45
2047, 14:09:04,60.107915,171.498461,888.942472,96.45
2048, 14:09:04,60.225892,172.190933,891.418324,96.45
2049, 14:09:04,60.349866,172.925545,893.911222,96.45
2050, 14:09:04,60.434975,173.480587,895.303977,96.45
2051, 14:09:04,60.64607,174.517282,899.18892,96.45
2052, 14:09:04,60.788826,175.369792,902.298295,96.45
2053, 14:09:04,60.783302,175.629261,901.863636,96.45
2054, 14:09:04,59.677833,171.512666,885.962358,96.45
2055, 14:09:04,58.278685,164.312382,861.300426,96.45
2056, 14:09:04,57.61265,160.278291,848.962358,96.45
2057, 14:09:04,57.48181,158.6817,843.479403,96.45
2058, 14:09:04,57.439394,157.674716,841.892045,96.45
2059, 14:09:04,57.241872,156.298059,836.12358,96.45
2060, 14:09:04,57.05378,154.901397,832.550426,96.45
2061, 14:09:04,57.05595,154.612453,831.81108,96.45
2062, 14:09:04,57.438171,156.136955,838.077415,96.45
2063, 14:09:04,57.617543,157.450166,841.68679,96.45
2064, 14:09:04,57.611742,157.516098,841.940341,96.45
2065, 14:09:04,57.622435,157.70348,842.294744,96.45
2066, 14:09:04,57.705611,158.205848,844.723722,96.45
2067, 14:09:04,57.826823,158.960109,846.604403,96.45
2068, 14:09:04,57.974787,159.898793,850.259233,96.45
2069, 14:09:04,58.119949,160.724432,852.727273,96.45
2070, 14:09:05,58.296757,161.617069,855.852983,96.45
2071, 14:09:05,58.36557,162.37938,857.34446,96.45
2072, 14:09:05,58.508562,163.010535,859.75071,96.45
2073, 14:09:05,58.593,163.618016,861.270597,96.45
2074, 14:09:05,58.70494,164.157907,864.524148,96.45
2075, 14:09:05,58.856771,164.970881,866.56392,96.45
2076, 14:09:05,59.002012,165.681226,868.891335,96.45
2077, 14:09:05,59.102746,166.457386,870.815341,96.45
2078, 14:09:05,59.287958,167.253078,873.53267,96.45
2079, 14:09:05,59.416272,167.917377,876.370739,96.45
2080, 14:09:05,59.515033,168.582031,878.404119,96.45
2081, 14:09:05,59.603022,169.117306,879.635653,96.45
2082, 14:09:05,59.777304,169.925189,883.454545,96.45
2083, 14:09:05,59.883996,170.613163,884.923295,96.45
2084, 14:09:05,60.010377,171.382457,887.652699,96.45
2085, 14:09:05,59.985519,171.575402,887.674006,96.45
2086, 14:09:05,59.052833,167.995147,873.740767,96.45
2087, 14:09:05,57.82485,161.923887,852.784801,96.45
2088, 14:09:05,57.241675,158.259588,841.452415,96.45
2089, 14:09:05,57.260062,157.024029,838.408381,96.45
2090, 14:09:05,57.234848,156.405777,836.946023,96.45
2091, 14:09:05,57.10322,155.47822,832.693182,96.45
2092, 14:09:05,56.998816,154.652225,831.40767,96.45
2093, 14:09:05,57.23694,155.437145,835.239347,96.45
2094, 14:09:05,57.602786,157.082505,841.347301,96.45
2095, 14:09:05,57.545612,157.231061,840.90625,96.45
2096, 14:09:05,57.491675,157.247277,840.941051,96.45
2097, 14:09:05,57.554924,157.393939,841.426136,96.45
2098, 14:09:05,57.71078,158.213778,845.262784,96.45
2099, 14:09:05,57.880721,159.134115,847.159801,96.45
2100, 14:09:06,58.025923,160.024266,851.412642,96.45
2101, 14:09:06,58.156132,160.856179,853.34446,96.45
2102, 14:09:06,58.247356,161.567353,855.580256,96.45
2103, 14:09:06,58.341343,162.283026,858.098722,96.45
2104, 14:09:06,58.436553,162.685606,858.727273,96.45
2105, 14:09:06,58.532986,163.425189,860.965909,96.45
2106, 14:09:06,58.665325,163.950521,863.68608,96.45
2107, 14:09:06,58.764205,164.675189,865.355114,96.45
2108, 14:09:06,58.91568,165.427912,867.777699,96.45
2109, 14:09:06,59.072404,166.20348,870.681108,96.45
2110, 14:09:06,59.221788,166.979759,873.34446,96.45
2111, 14:09:06,59.345289,167.584635,875.21804,96.45
2112, 14:09:06,59.095013,166.910985,872.315341,96.45
2113, 14:09:06,57.915246,162.017045,853.636364,96.45
2114, 14:09:06,56.94764,156.981179,837.514915,96.45
2115, 14:09:06,56.775844,154.539654,829.428267,96.45
2116, 14:09:06,56.718987,153.632339,828.007102,96.45
2117, 14:09:06,56.637626,152.742424,825.25,96.45
2118, 14:09:06,56.435093,151.665601,820.973722,96.45
2119, 14:09:06,56.432015,151.260062,820.242188,96.45
2120, 14:09:06,56.736782,152.482126,825.537642,96.45
2121, 14:09:06,57.01456,153.991596,830.102983,96.45
2122, 14:09:06,57.063052,154.288589,831.515625,96.45
2123, 14:09:06,57.021504,154.314039,831.574574,96.45
2124, 14:09:06,57.14678,154.830966,833.198864,96.45
2125, 14:09:06,57.331242,155.693063,836.513494,96.45
2126, 14:09:06,57.490017,156.728101,839.732244,96.45
2127, 14:09:06,57.643071,157.658381,842.890625,96.45
2128, 14:09:06,57.733152,158.386955,845.75071,96.45
2129, 14:09:06,57.836174,159.192708,848.201705,96.45
2130, 14:09:07,57.924479,159.937263,850.53267,96.45
2131, 14:09:07,58.025371,160.595526,852.970881,96.45
2132, 14:09:07,58.151949,161.342685,855.422585,96.45
2133, 14:09:07,58.275134,162.082031,857.327415,96.45
2134, 14:09:07,58.423059,162.884706,860.262784,96.45
2135, 14:09:07,58.552162,163.598248,862.257102,96.45
2136, 14:09:07,58.719223,164.399148,865.4375,96.45
2137, 14:09:07,58.840672,165.202415,868.59233,96.45
2138, 14:09:07,58.959044,165.882339,870.322443,96.45
2139, 14:09:07,59.054056,166.640862,871.333807,96.45
2140, 14:09:07,59.197088,167.290601,874.43679,96.45
2141, 14:09:07,59.309541,168.002012,876.054688,96.45
2142, 14:09:07,59.388613,168.487334,878.566051,96.45
2143, 14:09:07,59.564749,169.339134,880.932528,96.45
2144, 14:09:07,59.718316,170.215554,884.15696,96.45
2145, 14:09:07,59.843592,170.96733,886.332386,96.45
2146, 14:09:07,59.456755,169.923769,882.215909,96.45
2147, 14:09:07,58.069484,163.80599,859.083097,96.45
2148, 14:09:07,56.956479,157.772372,839.816051,96.45
2149, 14:09:07,56.684738,155.064631,830.651989,96.45
2150, 14:09:07,56.670218,154.11482,828.620739,96.45
2151, 14:09:07,56.466619,152.805161,824.387784,96.45
2152, 14:09:07,56.228496,151.267401,819.473722,96.45
2153, 14:09:07,56.172585,150.45715,816.40483,96.45
2154, 14:09:07,56.328204,151.029593,819.68608,96.45
2155, 14:09:07,56.692235,152.809186,825.551136,96.45
2156, 14:09:07,56.813605,153.651515,829.048295,96.45
2157, 14:09:07,56.758996,153.680871,828.511364,96.45
2158, 14:09:07,56.83432,154.033736,829.193892,96.45
2159, 14:09:07,57.023674,154.884943,832.914773,96.45
2160, 14:09:08,57.215633,155.839607,836.370028,96.45
2161, 14:09:08,57.345841,156.89027,839.955256,96.45
2162, 14:09:08,57.435488,157.611387,842.324574,96.45
2163, 14:09:08,57.541114,158.485559,844.538352,96.45
2164, 14:09:08,57.629104,159.181345,846.377841,96.45
2165, 14:09:08,57.775529,159.997988,849.612926,96.45
2166, 14:09:08,57.896228,160.654593,852.521307,96.45
2167, 14:09:08,58.03705,161.522135,854.84304,96.45
2168, 14:09:08,58.17006,162.274384,857.231534,96.45
2169, 14:09:08,58.293758,163.027107,859.943892,96.45
2170, 14:09:08,58.483783,163.86044,862.87571,96.45
2171, 14:09:08,58.628788,164.67661,865.252841,96.45
2172, 14:09:08,58.775331,165.539062,867.865057,96.45
2173, 14:09:08,58.945076,166.227273,870.696023,96.45
2174, 14:09:08,59.057805,167.039418,873.352983,96.45
2175, 14:09:08,59.205137,167.830848,875.825994,96.45
2176, 14:09:08,59.308199,168.491832,878.479403,96.45
2177, 14:09:08,59.474432,169.340436,881.335227,96.45
2178, 14:09:08,59.584754,169.975852,882.133523,96.45
2179, 14:09:08,59.690065,170.752486,885.193892,96.45
2180, 14:09:08,59.802241,171.377367,887.803977,96.45
2181, 14:09:08,59.977273,172.276989,890.315341,96.45
2182, 14:09:08,60.098801,172.986269,893.045455,96.45
2183, 14:09:08,60.054017,173.12133,892.401278,96.45
2184, 14:09:08,58.830808,168.428977,874.198864,96.45
2185, 14:09:08,57.450284,161.360322,850.357955,96.45
2186, 14:09:08,56.819287,157.487216,838.102273,96.45
2187, 14:09:08,56.698272,156.139323,833.591619,96.45
2188, 14:09:08,56.627407,155.440459,831.480824,96.45
2189, 14:09:08,56.511285,154.023438,826.737216,96.45
2190, 14:09:09,56.351878,153.072206,824.308239,96.45
2191, 14:09:09,56.51381,153.327888,825.791193,96.45
2192, 14:09:09,56.874369,154.917614,832.065341,96.45
2193, 14:09:09,56.988755,155.809541,834.323153,96.45
2194, 14:09:09,56.882457,155.814986,834.245028,96.45
2195, 14:09:09,56.926097,155.950166,834.578835,96.45
2196, 14:09:09,57.028212,156.503196,837.138494,96.45
2197, 14:09:09,57.19768,157.477983,840.413352,96.45
2198, 14:09:09,57.356179,158.397135,843.408381,96.45
2199, 14:09:09,57.534012,159.307055,846.669034,96.45
2200, 14:09:09,57.674124,160.187145,849.665483,96.45
2201, 14:09:09,57.739978,160.888021,850.120739,96.45
2202, 14:09:09,57.913313,161.53492,853.698153,96.45
2203, 14:09:09,58.053385,162.103812,856.529119,96.45
2204, 14:09:09,58.170297,162.782197,858.099432,96.45
2205, 14:09:09,58.326231,163.566288,860.821023,96.45
2206, 14:09:09,58.439473,164.309896,863.18892,96.45
2207, 14:09:09,58.634036,165.232599,866.097301,96.45
2208, 14:09:09,58.785511,165.979167,869.377841,96.45
2209, 14:09:09,58.909288,166.851444,871.503551,96.45
2210, 14:09:09,59.003235,167.450994,873.325284,96.45
2211, 14:09:09,59.162603,168.182884,875.43821,96.45
2212, 14:09:09,59.291351,169.02983,878.767045,96.45
2213, 14:09:09,59.430279,169.786103,881.020597,96.45
2214, 14:09:09,59.545455,170.477746,883.880682,96.45
2215, 14:09:09,59.156881,169.357481,878.011364,96.45
2216, 14:09:09,57.852194,163.54143,857.96733,96.45
2217, 14:09:09,56.831795,158.051728,838.512074,96.45
2218, 14:09:09,56.516651,155.866714,831.955966,96.45
2219, 14:09:09,56.568813,155.171875,830.633523,96.45
2220, 14:09:10,56.475024,154.382457,828.314631,96.45
2221, 14:09:10,56.347222,153.522254,825.306818,96.45
2222, 14:09:10,56.384154,153.271307,824.903409,96.45
2223, 14:09:10,56.753906,154.723366,831.192472,96.45
2224, 14:09:10,56.955019,155.909564,835.181818,96.45
2225, 14:09:10,56.895399,156.135535,834.648438,96.45
2226, 14:09:10,56.87283,156.207031,834.418324,96.45
2227, 14:09:10,56.951902,156.568774,835.46946,96.45
2228, 14:09:10,57.194997,157.661222,839.862216,96.45
2229, 14:09:10,57.364268,158.59517,844.579545,96.45
2230, 14:09:10,57.52833,159.606771,847.367898,96.45
2231, 14:09:10,57.663155,160.309067,848.746449,96.45
2232, 14:09:10,57.728535,160.921402,851.085227,96.45
2233, 14:09:10,57.951626,161.734138,854.203125,96.45
2234, 14:09:10,58.04794,162.261245,856.172585,96.45
2235, 14:09:10,58.163944,162.916548,857.914062,96.45
2236, 14:09:10,58.290522,163.577533,861.607244,96.45
2237, 14:09:10,58.458254,164.448153,863.319602,96.45
2238, 14:09:10,58.621646,165.245147,866.470881,96.45
2239, 14:09:10,58.765743,166.03492,869.022017,96.45
2240, 14:09:10,58.884312,166.795928,871.607955,96.45
2241, 14:09:10,59.001578,167.514678,873.272727,96.45
2242, 14:09:10,59.17148,168.409328,876.81108,96.45
2243, 14:09:10,59.315775,169.317116,879.141335,96.45
2244, 14:09:10,59.349787,169.677675,879.858665,96.45
2245, 14:09:10,58.523398,166.544626,867.415483,96.45
2246, 14:09:10,57.122593,159.872041,844.962358,96.45
2247, 14:09:10,56.360322,155.660985,829.769886,96.45
2248, 14:09:10,56.239426,154.140625,826.173295,96.45
2249, 14:09:10,56.246133,153.258759,822.740057,96.45
2250, 14:09:11,56.021465,152.05303,818.994318,96.175
