frame_index,timestamp,R,G,B,average_SpO2
0, 15:13:23,70.882655,177.912642,934.174716,96.375
1, 15:13:23,71.002565,178.361861,936.674006,96.375
2, 15:13:23,71.036261,178.962003,937.050426,96.375
3, 15:13:23,71.084833,179.091146,937.913352,96.375
4, 15:13:23,70.745226,177.599313,929.62429,96.375
5, 15:13:23,70.144176,174.977983,921.723011,96.375
6, 15:13:23,69.841935,173.333097,915.132102,96.375
7, 15:13:23,69.765507,172.48544,917.921165,96.375
8, 15:13:23,69.730548,172.16134,916.74929,96.375
9, 15:13:23,69.691485,171.804569,915.807528,96.375
10, 15:13:23,69.635298,171.587713,914.71946,96.375
11, 15:13:23,69.700481,171.780421,916.00071,96.375
12, 15:13:23,69.820549,172.206913,917.659091,96.375
13, 15:13:23,69.860795,172.392045,918.227273,96.375
14, 15:13:23,69.863123,172.467211,917.953835,96.375
15, 15:13:23,69.850339,172.447325,917.698153,96.375
16, 15:13:23,69.93458,172.777699,918.598011,96.375
17, 15:13:23,70.060843,173.222775,920.674716,96.375
18, 15:13:23,70.158341,173.707978,922.193892,96.375
19, 15:13:23,70.219066,174.109848,923.505682,96.375
20, 15:13:23,70.349274,174.780777,925.84375,96.375
21, 15:13:23,70.406566,175.133996,925.889205,96.375
22, 15:13:23,70.51381,175.603456,927.90767,96.375
23, 15:13:23,70.586135,176.024976,929.28054,96.375
24, 15:13:23,70.663392,176.512429,929.946733,96.375
25, 15:13:23,70.784643,177.095407,931.921875,96.375
26, 15:13:23,70.812816,177.423295,932.315341,96.375
27, 15:13:23,70.905895,178.019295,935.010653,96.375
28, 15:13:23,70.965238,178.538234,935.235085,96.375
29, 15:13:23,71.037839,179.021662,935.956676,96.375
30, 15:13:24,71.157236,179.711766,938.227983,96.35
31, 15:13:24,70.856968,178.935014,931.976562,96.35
32, 15:13:24,70.539497,177.733073,927.355824,96.35
33, 15:13:24,70.04794,175.460582,919.362926,96.35
34, 15:13:24,69.76527,173.948272,916.107244,96.35
35, 15:13:24,69.758523,173.576231,915.431818,96.35
36, 15:13:24,69.755248,173.282789,915.591619,96.35
37, 15:13:24,69.732481,173.052083,914.903409,96.35
38, 15:13:24,69.683949,172.700047,914.007102,96.35
39, 15:13:24,69.747909,172.934541,914.831676,96.35
40, 15:13:24,69.811869,173.230114,915.732955,96.35
41, 15:13:24,69.852983,173.378078,915.77983,96.35
42, 15:13:24,69.831558,173.336056,915.490767,96.35
43, 15:13:24,69.836924,173.390507,915.414062,96.35
44, 15:13:24,69.888021,173.623343,916.245739,96.35
45, 15:13:24,69.917771,173.874053,916.872159,96.35
46, 15:13:24,70.025213,174.336056,919.28054,96.35
47, 15:13:24,70.071812,174.673769,920.048295,96.35
48, 15:13:24,70.193774,175.196378,921.291903,96.35
49, 15:13:24,70.238597,175.582741,922.817472,96.35
50, 15:13:24,70.305792,175.962358,923.703125,96.35
51, 15:13:24,70.370739,176.371212,924.15625,96.35
52, 15:13:24,70.35393,176.611506,924.49858,96.35
53, 15:13:24,70.502604,177.130919,926.734375,96.35
54, 15:13:24,70.498816,177.534801,927.421875,96.35
55, 15:13:24,70.588108,178.028527,929.486506,96.35
56, 15:13:24,70.681858,178.58866,930.486506,96.35
57, 15:13:24,70.750908,178.919389,931.354403,96.35
58, 15:13:24,70.585346,178.573272,929.726562,96.35
59, 15:13:24,70.055871,176.33286,921.676136,96.35
60, 15:13:25,69.66639,174.346236,916.046165,96.4
61, 15:13:25,69.53559,173.283381,913.410511,96.4
62, 15:13:25,69.458846,172.742069,911.921165,96.4
63, 15:13:25,69.422901,172.352509,911.06392,96.4
64, 15:13:25,69.305082,171.732481,908.360795,96.4
65, 15:13:25,69.332189,171.629143,909.147017,96.4
66, 15:13:25,69.345092,171.654119,909.203125,96.4
67, 15:13:25,69.394571,171.847064,910.002841,96.4
68, 15:13:25,69.385653,171.782907,909.973011,96.4
69, 15:13:25,69.367622,171.743016,909.799006,96.4
70, 15:13:25,69.352431,171.693655,910.244318,96.4
71, 15:13:25,69.392874,171.761009,910.193892,96.4
72, 15:13:25,69.463029,172.070431,911.808949,96.4
73, 15:13:25,69.495226,172.247514,911.970881,96.4
74, 15:13:25,69.566288,172.584754,911.758523,96.4
75, 15:13:25,69.605824,172.861032,913.524148,96.4
76, 15:13:25,69.653646,173.198627,914.379261,96.4
77, 15:13:25,69.757102,173.547348,916.752841,96.4
78, 15:13:25,69.793837,173.795336,917.141335,96.4
79, 15:13:25,69.857126,174.157552,917.666903,96.4
80, 15:13:25,69.888534,174.439276,918.323153,96.4
81, 15:13:25,69.980311,174.905895,920.105824,96.4
82, 15:13:25,70.040562,175.273201,921.153409,96.4
83, 15:13:25,70.074811,175.564394,922.21875,96.4
84, 15:13:25,70.15041,176.064867,922.855114,96.4
85, 15:13:25,70.1802,176.342211,923.260653,96.4
86, 15:13:25,70.200047,176.547585,923.865057,96.4
87, 15:13:25,69.734927,174.808002,917.475852,96.4
88, 15:13:25,69.25221,172.40483,910.275568,96.4
89, 15:13:25,68.951981,170.697325,905.195312,96.4
90, 15:13:26,68.843395,169.774976,902.300426,96.4
91, 15:13:26,68.718277,169.05303,900.329545,96.4
92, 15:13:26,68.557489,168.207978,897.691051,96.4
93, 15:13:26,68.453125,167.485322,896.448864,96.4
94, 15:13:26,68.463423,167.486387,896.168324,96.4
95, 15:13:26,68.51018,167.575994,897.200284,96.4
96, 15:13:26,68.57268,167.727509,898.214489,96.4
97, 15:13:26,68.552517,167.685961,898.138494,96.4
98, 15:13:26,68.546914,167.600024,897.915483,96.4
99, 15:13:26,68.561987,167.659446,898.232244,96.4
100, 15:13:26,68.610006,167.866004,898.522727,96.4
101, 15:13:26,68.695234,168.113163,900.039773,96.4
102, 15:13:26,68.768032,168.497751,901.054688,96.4
103, 15:13:26,68.859454,168.995975,903.089489,96.4
104, 15:13:26,68.907434,169.197206,902.819602,96.4
105, 15:13:26,68.969421,169.574929,904.424006,96.4
106, 15:13:26,69.025963,169.830256,904.569602,96.4
107, 15:13:26,69.087318,170.215554,905.966619,96.4
108, 15:13:26,69.170967,170.600971,907.585938,96.4
109, 15:13:26,69.284249,171.130682,909.735795,96.4
110, 15:13:26,69.339449,171.510298,910.664062,96.4
111, 15:13:26,69.432962,171.96508,911.78196,96.4
112, 15:13:26,69.526357,172.434186,912.934659,96.4
113, 15:13:26,69.566959,172.689512,913.889915,96.4
114, 15:13:26,69.640152,173.152936,914.977273,96.4
115, 15:13:26,69.735164,173.638258,916.522727,96.4
116, 15:13:26,69.855469,174.227865,917.847301,96.4
117, 15:13:26,69.790522,174.255563,918.519176,96.4
118, 15:13:26,69.344736,172.693774,911.182528,96.4
119, 15:13:26,68.867464,170.619437,904.25071,96.4
120, 15:13:27,68.656842,169.334162,900.519176,96.15
121, 15:13:27,68.587437,168.73911,899.823864,96.15
122, 15:13:27,68.504577,168.206913,898.09375,96.15
123, 15:13:27,68.398635,167.637666,896.274858,96.15
124, 15:13:27,68.295297,167.177083,894.747159,96.15
125, 15:13:27,68.37863,167.360795,896.289773,96.15
126, 15:13:27,68.4927,167.767874,897.638494,96.15
127, 15:13:27,68.529553,167.937618,898.810369,96.15
128, 15:13:27,68.558673,168.041075,898.715199,96.15
129, 15:13:27,68.558475,168.083097,898.93892,96.15
130, 15:13:27,68.637508,168.408736,900.080256,96.15
131, 15:13:27,68.69117,168.716027,900.833097,96.15
132, 15:13:27,68.796283,169.194247,902.682528,96.15
133, 15:13:27,68.887745,169.684541,904.169744,96.15
134, 15:13:27,68.93608,170.021307,904.982955,96.15
135, 15:13:27,69.062027,170.537405,907.292614,96.15
136, 15:13:27,69.121843,170.827652,907.826705,96.15
137, 15:13:27,69.204072,171.310133,909.286932,96.15
138, 15:13:27,69.251894,171.61553,909.363636,96.15
139, 15:13:27,69.356968,172.284446,912.294744,96.15
140, 15:13:27,69.499605,172.717093,913.285511,96.15
141, 15:13:27,69.527699,173.174006,914.512784,96.15
142, 15:13:27,69.603456,173.597301,915.43892,96.15
143, 15:13:27,69.685606,174.074811,917.690341,96.15
144, 15:13:27,69.760614,174.62938,918.242188,96.15
145, 15:13:27,69.804885,175.0567,919.791903,96.15
146, 15:13:27,69.894255,175.594223,921.59375,96.15
147, 15:13:27,69.997238,176.212831,923.109375,96.15
148, 15:13:27,70.068497,176.680871,923.965909,96.15
149, 15:13:27,70.014875,176.571141,924.34446,96.15
150, 15:13:28,69.519137,174.734493,916.739347,96.15
151, 15:13:28,69.099392,172.872988,911.004972,96.15
152, 15:13:28,68.935409,171.699692,906.81179,96.15
153, 15:13:28,68.919508,171.292614,906.056818,96.15
154, 15:13:28,68.899384,170.85535,905.555398,96.15
155, 15:13:28,68.761285,170.25071,903.225852,96.15
156, 15:13:28,68.759193,170.180516,903.628551,96.15
157, 15:13:28,68.82631,170.273438,904.558239,96.15
158, 15:13:28,68.923572,170.586529,905.573153,96.15
159, 15:13:28,68.940025,170.651042,906.238636,96.15
160, 15:13:28,68.980153,170.780895,906.034801,96.15
161, 15:13:28,68.981455,170.821733,906.799716,96.15
162, 15:13:28,69.021228,171.065578,907.134943,96.15
163, 15:13:28,69.113794,171.408144,908.693182,96.15
164, 15:13:28,69.172625,171.764086,909.385653,96.15
165, 15:13:28,69.279553,172.24491,911.458097,96.15
166, 15:13:28,69.343079,172.544389,912.567472,96.15
167, 15:13:28,69.429372,173.06321,913.833807,96.15
168, 15:13:28,69.47167,173.392756,913.830966,96.15
169, 15:13:28,69.529198,173.816761,915.650568,96.15
170, 15:13:28,69.57047,174.152699,916.09233,96.15
171, 15:13:28,69.649384,174.564631,917.237216,96.15
172, 15:13:28,69.727746,175.089015,917.664773,96.15
173, 15:13:28,69.80236,175.414181,919.96804,96.15
174, 15:13:28,69.911656,176.000118,921.549006,96.15
175, 15:13:28,69.947285,176.293087,922.599432,96.15
176, 15:13:28,70.050071,176.853338,923.941051,96.15
177, 15:13:28,70.105863,177.259825,925.365767,96.15
178, 15:13:28,70.20348,177.785156,926.335938,96.15
179, 15:13:28,70.262271,178.155658,927.916903,96.15
180, 15:13:29,70.086372,177.556937,925.296165,96.175
181, 15:13:29,69.574534,175.513376,917.489347,96.175
182, 15:13:29,69.175623,173.546757,911.504972,96.175
183, 15:13:29,69.113321,172.59233,909.502841,96.175
184, 15:13:29,69.081992,172.008759,908.28267,96.175
185, 15:13:29,69.044586,171.630445,907.634943,96.175
186, 15:13:29,68.961529,171.010062,905.489347,96.175
187, 15:13:29,69.000868,171.080729,906.151989,96.175
188, 15:13:29,69.075047,171.27107,907.262784,96.175
189, 15:13:29,69.136324,171.357363,908.229403,96.175
190, 15:13:29,69.170297,171.307765,907.872159,96.175
191, 15:13:29,69.110598,171.152344,906.536222,96.175
192, 15:13:29,69.147214,171.290601,906.789062,96.175
193, 15:13:29,69.200087,171.458688,908.90554,96.175
194, 15:13:29,69.306226,171.860914,909.702415,96.175
195, 15:13:29,69.387705,172.244555,910.805398,96.175
196, 15:13:29,69.485953,172.647727,911.801136,96.175
197, 15:13:29,69.536301,172.951705,913.136364,96.175
198, 15:13:29,69.618292,173.276278,914.444602,96.175
199, 15:13:29,69.695076,173.655303,915.693182,96.175
200, 15:13:29,69.713976,173.852154,916.18679,96.175
201, 15:13:29,69.78271,174.360914,917.682528,96.175
202, 15:13:29,69.871409,174.686198,918.770597,96.175
203, 15:13:29,69.958136,175.064276,919.939631,96.175
204, 15:13:29,70.014915,175.565578,921.160511,96.175
205, 15:13:29,70.074416,175.959517,922.15483,96.175
206, 15:13:29,70.216185,176.460582,923.522017,96.175
207, 15:13:29,70.089923,176.240412,922.632812,96.175
208, 15:13:29,69.654948,174.460109,915.40554,96.175
209, 15:13:29,69.154159,172.01598,908.192472,96.175
210, 15:13:30,68.906368,170.345052,903.473722,96.15
211, 15:13:30,68.824968,169.652462,901.409091,96.15
212, 15:13:30,68.767716,169.082505,900.441051,96.15
213, 15:13:30,68.700442,168.549716,899.664773,96.15
214, 15:13:30,68.669231,168.310724,898.389915,96.15
215, 15:13:30,68.764757,168.553267,900.421875,96.15
216, 15:13:30,68.842921,168.766454,900.877131,96.15
217, 15:13:30,68.838147,168.798059,900.012784,96.15
218, 15:13:30,68.856297,168.789536,900.81392,96.15
219, 15:13:30,68.853614,168.75071,901.328125,96.15
220, 15:13:30,68.89682,168.990175,902.199574,96.15
221, 15:13:30,69.019058,169.384825,903.354403,96.15
222, 15:13:30,69.135732,169.914773,904.943182,96.15
223, 15:13:30,69.263139,170.370857,907.409801,96.15
224, 15:13:30,69.312382,170.722656,908.017756,96.15
225, 15:13:30,69.38514,171.108546,909.290483,96.15
226, 15:13:30,69.447206,171.43821,910.143466,96.15
227, 15:13:30,69.555516,171.923651,911.848722,96.15
228, 15:13:30,69.611506,172.255919,911.887784,96.15
229, 15:13:30,69.718908,172.679451,913.463068,96.15
230, 15:13:30,69.765191,173.025687,914.432528,96.15
231, 15:13:30,69.861466,173.534683,916.341619,96.15
232, 15:13:30,69.956479,173.942353,917.139915,96.15
233, 15:13:30,70.023161,174.479995,918.360085,96.15
234, 15:13:30,70.043916,174.705611,919.361506,96.15
235, 15:13:30,69.652107,173.140033,913.431108,96.15
236, 15:13:30,69.088542,170.583807,904.264205,96.15
237, 15:13:30,68.748461,168.67152,898.929688,96.15
238, 15:13:30,68.603575,167.759115,896.253551,96.15
239, 15:13:30,68.523714,167.20277,895.020597,96.15
240, 15:13:31,68.393071,166.384706,893.115057,96.15
241, 15:13:31,68.37721,166.121212,892.21875,96.15
242, 15:13:31,68.415562,166.169508,892.954545,96.15
243, 15:13:31,68.5509,166.78196,896.004261,96.15
244, 15:13:31,68.623856,167.069484,896.195312,96.15
245, 15:13:31,68.686356,167.377723,898.016335,96.15
246, 15:13:31,68.7558,167.57848,898.240767,96.15
247, 15:13:31,68.800584,167.840199,899.197443,96.15
248, 15:13:31,68.911932,168.445076,900.409091,96.15
249, 15:13:31,68.991556,168.831203,901.75142,96.15
250, 15:13:31,69.157947,169.506037,904.317472,96.15
251, 15:13:31,69.250434,170.013613,906.56179,96.15
252, 15:13:31,69.357481,170.578125,907.852273,96.15
253, 15:13:31,69.455216,171.096236,909.017756,96.15
254, 15:13:31,69.538707,171.526634,910.174006,96.15
255, 15:13:31,69.673374,172.205256,912.24858,96.15
256, 15:13:31,69.731376,172.671402,912.818182,96.15
257, 15:13:31,69.841343,173.299598,915.516335,96.15
258, 15:13:31,69.937776,173.8692,917.192472,96.15
259, 15:13:31,70.05524,174.47017,918.897727,96.15
260, 15:13:31,70.176373,175.209991,920.339489,96.15
261, 15:13:31,70.212397,175.555279,921.837358,96.15
262, 15:13:31,70.325876,176.320431,923.397017,96.15
263, 15:13:31,70.39098,176.802202,924.367188,96.15
264, 15:13:31,70.515467,177.499053,925.943182,96.15
265, 15:13:31,70.583215,178.377012,928.872869,96.15
266, 15:13:31,70.581203,178.567472,928.50142,96.15
267, 15:13:31,70.191051,177.028646,922.504261,96.15
268, 15:13:31,69.666903,174.807055,915.296875,96.15
269, 15:13:31,69.530934,173.601326,912.335227,96.15
270, 15:13:32,69.46366,173.111624,911.200994,96.15
271, 15:13:32,69.486703,172.993726,911.865767,96.15
272, 15:13:32,69.39536,172.525095,909.571023,96.15
273, 15:13:32,69.365728,172.415365,910.077415,96.15
274, 15:13:32,69.427794,172.585464,910.867898,96.15
275, 15:13:32,69.575481,173.197562,912.87571,96.15
276, 15:13:32,69.622672,173.546993,912.926847,96.15
277, 15:13:32,69.669508,173.75,913.931818,96.15
278, 15:13:32,69.709754,174.082386,914.928977,96.15
279, 15:13:32,69.745778,174.502486,915.216619,96.15
280, 15:13:32,69.844894,175.056463,916.827415,96.15
281, 15:13:32,69.916035,175.57197,919.224432,96.15
282, 15:13:32,70.056542,176.234967,921.307528,96.15
283, 15:13:32,70.146978,176.815459,922.949574,96.15
284, 15:13:32,70.191682,177.264441,923.791193,96.15
285, 15:13:32,70.313368,177.858665,925.68608,96.15
286, 15:13:32,70.354324,178.297348,925.738636,96.15
287, 15:13:32,70.460385,178.9375,927.934659,96.15
288, 15:13:32,70.520044,179.331913,928.590909,96.15
289, 15:13:32,70.616556,180.055634,931.00142,96.15
290, 15:13:32,70.685567,180.546283,932.604403,96.15
291, 15:13:32,70.78125,181.14678,934.017045,96.15
292, 15:13:32,70.901318,181.737571,935.360085,96.15
293, 15:13:32,70.973327,182.25,936.59375,96.15
294, 15:13:32,71.086095,182.90554,939.234375,96.15
295, 15:13:32,71.14461,183.290365,939.480824,96.15
296, 15:13:32,71.246409,183.835819,940.787642,96.15
297, 15:13:32,71.302123,184.406842,942.534801,96.15
298, 15:13:32,71.432489,185.025213,944.764915,96.15
299, 15:13:32,71.327888,184.9259,943.68892,96.15
300, 15:13:33,70.922388,183.407315,937.398438,96.1
301, 15:13:33,70.514205,181.653883,931.909091,96.1
302, 15:13:33,70.331913,180.723485,928.485795,96.1
303, 15:13:33,70.359414,180.582505,928.855824,96.1
304, 15:13:33,70.341343,180.317116,929.206676,96.1
305, 15:13:33,70.284683,179.954901,928.397017,96.1
306, 15:13:33,70.25142,179.661458,927.392045,96.1
307, 15:13:33,70.322522,179.835938,928.080966,96.1
308, 15:13:33,70.378591,180.088423,928.379972,96.1
309, 15:13:33,70.415128,180.222656,929.145597,96.1
310, 15:13:33,70.418087,180.214489,928.448864,96.1
311, 15:13:33,70.412169,180.200047,928.816761,96.1
312, 15:13:33,70.485322,180.439394,929.957386,96.1
313, 15:13:33,70.511324,180.586056,930.416903,96.1
314, 15:13:33,70.573469,180.942945,931.319602,96.1
315, 15:13:33,70.64102,181.304214,932.40483,96.1
316, 15:13:33,70.700166,181.515743,932.267756,96.1
317, 15:13:33,70.744437,181.851207,933.615767,96.1
318, 15:13:33,70.822917,182.195076,934.994318,96.1
319, 15:13:33,70.900884,182.57197,936.159091,96.1
320, 15:13:33,70.924676,182.727628,935.834517,96.1
321, 15:13:33,71.011798,183.198272,937.567472,96.1
322, 15:13:33,71.036656,183.481652,938.429688,96.1
323, 15:13:33,71.12062,183.905421,939.935369,96.1
324, 15:13:33,71.155619,184.208807,940.269886,96.1
325, 15:13:33,71.226997,184.557884,941.526278,96.1
326, 15:13:33,71.301649,184.961766,943.199574,96.1
327, 15:13:33,71.334557,185.31901,943.325994,96.1
328, 15:13:33,71.226799,184.991004,941.951705,96.1
329, 15:13:33,70.780342,183.16063,935.745028,96.1
330, 15:13:34,70.401121,181.218987,929.723011,96.1
331, 15:13:34,70.211135,180.01598,926.246449,96.1
332, 15:13:34,70.186316,179.509706,926.166193,96.1
333, 15:13:34,70.124645,178.881984,923.87429,96.1
334, 15:13:34,70.063644,178.238281,922.56321,96.1
335, 15:13:34,69.995541,177.871094,921.877131,96.1
336, 15:13:34,70.080848,177.882221,921.929688,96.1
337, 15:13:34,70.08215,177.925426,922.115057,96.1
338, 15:13:34,70.063526,177.75071,921.572443,96.1
339, 15:13:34,70.057331,177.582978,921.577415,96.1
340, 15:13:34,70.075915,177.474905,920.738636,96.1
341, 15:13:34,70.033381,177.430634,920.461648,96.1
342, 15:13:34,70.163747,177.775805,922.129261,96.1
343, 15:13:34,70.207899,178.085819,923.551847,96.1
344, 15:13:34,70.28196,178.231297,924.325284,96.1
345, 15:13:34,70.35176,178.60026,925.209517,96.1
346, 15:13:34,70.392124,178.754025,925.262784,96.1
347, 15:13:34,70.438486,178.991122,926.324574,96.1
348, 15:13:34,70.441367,179.191525,926.569602,96.1
349, 15:13:34,70.507418,179.57197,928.477273,96.1
350, 15:13:34,70.562303,179.779238,928.584517,96.1
351, 15:13:34,70.595999,180.135062,929.892756,96.1
352, 15:13:34,70.68604,180.520241,931.237926,96.1
353, 15:13:34,70.718632,180.775213,931.483665,96.1
354, 15:13:34,70.821062,181.179569,932.654119,96.1
355, 15:13:34,70.574692,180.305516,929.279119,96.1
356, 15:13:34,70.04364,178.03054,921.09233,96.1
357, 15:13:34,69.694326,175.954664,916.722301,96.1
358, 15:13:34,69.551215,174.588305,912.143466,96.1
359, 15:13:34,69.519768,173.82777,911.068892,96.1
360, 15:13:35,69.382734,173.007102,908.525568,96.1
361, 15:13:35,69.290246,172.249053,907.008523,96.1
362, 15:13:35,69.256155,171.855587,905.872159,96.1
363, 15:13:35,69.31901,172.020005,907.014915,96.1
364, 15:13:35,69.385298,172.124645,907.503551,96.1
365, 15:13:35,69.364386,172.057647,907.107244,96.1
366, 15:13:35,69.369318,172.071023,907.542614,96.1
367, 15:13:35,69.369831,172.001065,907.742188,96.1
368, 15:13:35,69.409051,172.227154,908.277699,96.1
369, 15:13:35,69.487216,172.478693,909.221591,96.1
370, 15:13:35,69.585306,172.933002,910.899148,96.1
371, 15:13:35,69.625158,173.274148,911.835227,96.1
372, 15:13:35,69.692038,173.586529,912.382812,96.1
373, 15:13:35,69.742779,173.820668,913.614347,96.1
374, 15:13:35,69.797112,174.263021,914.455966,96.1
375, 15:13:35,69.89027,174.712003,916.223722,96.1
376, 15:13:35,69.9186,174.963187,916.137074,96.1
377, 15:13:35,70.031092,175.44697,918.53125,96.1
378, 15:13:35,70.052951,175.780066,918.740057,96.1
379, 15:13:35,70.137074,176.287169,920.447443,96.1
380, 15:13:35,70.211372,176.750118,921.097301,96.1
381, 15:13:35,70.253551,177.134706,922.234375,96.1
382, 15:13:35,70.350497,177.571851,923.698153,96.1
383, 15:13:35,70.380287,177.965672,924.87642,96.1
384, 15:13:35,70.45565,178.508996,925.926136,96.1
385, 15:13:35,70.414299,178.42803,925.801136,96.1
386, 15:13:35,69.980745,176.643939,918.642045,96.1
387, 15:13:35,69.413194,173.985322,911.107955,96.1
388, 15:13:35,69.129064,172.239938,905.976562,96.1
389, 15:13:35,69.036892,171.238045,904.604403,96.1
390, 15:13:36,68.922309,170.496567,901.899858,95.85
391, 15:13:36,68.828638,169.804569,900.989347,95.85
392, 15:13:36,68.730035,169.128078,898.549716,95.85
393, 15:13:36,68.762784,169.173769,899.315341,95.85
394, 15:13:36,68.815223,169.323982,899.96946,95.85
395, 15:13:36,68.911577,169.676965,901.303267,95.85
396, 15:13:36,68.923927,169.761837,901.414773,95.85
397, 15:13:36,68.923374,169.83357,902.214489,95.85
398, 15:13:36,68.964173,170.033617,902.147727,95.85
399, 15:13:36,68.991122,170.188329,903.166903,95.85
400, 15:13:36,69.152541,170.851562,905.231534,95.85
401, 15:13:36,69.161892,171.134825,906.016335,95.85
402, 15:13:36,69.294863,171.71224,907.614347,95.85
403, 15:13:36,69.3052,172.046757,908.022017,95.85
404, 15:13:36,69.428149,172.470052,909.209517,95.85
405, 15:13:36,69.500434,172.877249,910.723722,95.85
406, 15:13:36,69.570431,173.323509,911.588778,95.85
407, 15:13:36,69.662405,173.749527,913.485795,95.85
408, 15:13:36,69.677083,174.1875,913.778409,95.85
409, 15:13:36,69.827888,174.809422,917.163352,95.85
410, 15:13:36,69.855903,175.299242,917.252841,95.85
411, 15:13:36,69.943576,175.827415,919.296875,95.85
412, 15:13:36,70.007023,176.234138,920.740057,95.85
413, 15:13:36,70.038865,176.577296,920.554688,95.85
414, 15:13:36,70.114702,177.019768,922.618608,95.85
415, 15:13:36,70.226523,177.687145,924.259233,95.85
416, 15:13:36,70.329348,178.238045,924.735085,95.85
417, 15:13:36,70.165167,177.708097,922.97017,95.85
418, 15:13:36,69.607955,175.53267,914.948864,95.85
419, 15:13:36,69.13593,173.05741,908.330256,95.85
420, 15:13:37,68.92661,171.603693,904.255682,95.9
421, 15:13:37,68.829624,170.798532,902.274148,95.9
422, 15:13:37,68.76602,170.1134,900.294034,95.9
423, 15:13:37,68.636127,169.43821,899.02983,95.9
424, 15:13:37,68.604916,169.127723,898.277699,95.9
425, 15:13:37,68.68099,169.363045,899.683949,95.9
426, 15:13:37,68.743056,169.63589,900.403409,95.9
427, 15:13:37,68.818616,169.923651,901.845881,95.9
428, 15:13:37,68.802123,169.948982,901.960938,95.9
429, 15:13:37,68.826428,170.102391,901.350142,95.9
430, 15:13:37,68.906289,170.330137,902.833097,95.9
431, 15:13:37,69.001223,170.846473,904.550426,95.9
432, 15:13:37,69.139717,171.306463,906.225142,95.9
433, 15:13:37,69.214568,171.893703,907.848011,95.9
434, 15:13:37,69.290286,172.407789,908.077415,95.9
435, 15:13:37,69.340357,172.724669,909.109375,95.9
436, 15:13:37,69.422467,173.119673,910.973722,95.9
437, 15:13:37,69.430161,173.388968,911.705966,95.9
438, 15:13:37,69.510614,173.852391,912.600142,95.9
439, 15:13:37,69.572325,174.195668,913.943892,95.9
440, 15:13:37,69.605271,174.496686,914.852273,95.9
441, 15:13:37,69.69551,175.033499,916.277699,95.9
442, 15:13:37,69.732955,175.363636,916.900568,95.9
443, 15:13:37,69.830374,175.873698,918.512074,95.9
444, 15:13:37,69.881787,176.262784,919.113636,95.9
445, 15:13:37,69.986742,176.849905,921.747159,95.9
446, 15:13:37,70.043442,177.211766,921.679688,95.9
447, 15:13:37,69.89319,176.782789,919.659801,95.9
448, 15:13:37,69.358862,174.569484,912.470881,95.9
449, 15:13:37,68.928109,172.203362,905.163352,95.9
450, 15:13:38,68.741201,170.653527,900.463778,95.875
451, 15:13:38,68.626342,169.899384,898.865057,95.875
452, 15:13:38,68.599471,169.324455,897.918324,95.875
453, 15:13:38,68.468237,168.624408,895.698153,95.875
454, 15:13:38,68.481692,168.632102,895.857955,95.875
455, 15:13:38,68.586727,168.9491,897.853693,95.875
456, 15:13:38,68.600458,169.096828,897.59517,95.875
457, 15:13:38,68.621725,169.076823,898.424006,95.875
458, 15:13:38,68.596039,169.046638,897.421875,95.875
459, 15:13:38,68.63735,169.104759,897.543324,95.875
460, 15:13:38,68.658854,169.250237,898.129261,95.875
461, 15:13:38,68.744279,169.616359,899.181108,95.875
462, 15:13:38,68.791588,170.065578,900.240057,95.875
463, 15:13:38,68.925189,170.54072,902.508523,95.875
464, 15:13:38,68.995936,170.907789,903.216619,95.875
465, 15:13:38,68.999961,171.250355,904.391335,95.875
466, 15:13:38,69.111151,171.664891,905.864347,95.875
467, 15:13:38,69.155461,171.942708,906.477273,95.875
468, 15:13:38,69.246962,172.367306,907.985085,95.875
469, 15:13:38,69.280106,172.599787,908.073153,95.875
470, 15:13:38,69.380287,173.206203,910.012784,95.875
471, 15:13:38,69.457071,173.591383,911.025568,95.875
472, 15:13:38,69.537208,174.103101,911.774858,95.875
473, 15:13:38,69.598051,174.545573,914.012074,95.875
474, 15:13:38,69.399779,173.970644,910.869318,95.875
475, 15:13:38,68.894216,171.687855,902.817472,95.875
476, 15:13:38,68.451665,169.390033,895.536222,95.875
477, 15:13:38,68.286379,168.187263,892.370739,95.875
478, 15:13:38,68.265467,167.695549,891.696023,95.875
479, 15:13:38,68.177715,167.238163,890.46875,95.875
480, 15:13:39,68.159249,166.97964,889.778409,95.9
481, 15:13:39,68.192748,167.038471,889.941051,95.9
482, 15:13:39,68.32197,167.549242,892.028409,95.9
483, 15:13:39,68.395163,167.787287,893.385653,95.9
484, 15:13:39,68.449574,168.165483,894.274148,95.9
485, 15:13:39,68.458531,168.217448,894.443892,95.9
486, 15:13:39,68.550229,168.600971,895.245028,95.9
487, 15:13:39,68.656368,169.018821,896.479403,95.9
488, 15:13:39,68.734493,169.506984,898.081676,95.9
489, 15:13:39,68.891848,170.180279,901.007812,95.9
490, 15:13:39,68.986269,170.746212,902.53125,95.9
491, 15:13:39,69.089962,171.370265,904.5,95.9
492, 15:13:39,69.14828,171.850616,906.163352,95.9
493, 15:13:39,69.252762,172.432528,906.643466,95.9
494, 15:13:39,69.378591,173.125355,908.695312,95.9
495, 15:13:39,69.474116,173.727273,910.59375,95.9
496, 15:13:39,69.528527,174.38151,911.845881,95.9
497, 15:13:39,69.583965,174.910511,912.701705,95.9
498, 15:13:39,69.731968,175.680279,914.433949,95.9
499, 15:13:39,69.846315,176.320668,916.387074,95.9
500, 15:13:39,69.955216,176.934304,918.96946,95.9
501, 15:13:39,69.677004,176.093987,914.421875,95.9
502, 15:13:39,69.233191,174.185369,908.325284,95.9
503, 15:13:39,68.974866,172.840317,904.394176,95.9
504, 15:13:39,68.90842,172.292495,903.283381,95.9
505, 15:13:39,68.920455,172.013258,902.650568,95.9
506, 15:13:39,68.849511,171.63518,901.160511,95.9
507, 15:13:39,68.823627,171.424006,900.825284,95.9
508, 15:13:39,68.848288,171.576113,901.064631,95.9
509, 15:13:39,68.983783,172.209399,904.341619,95.9
510, 15:13:40,69.052438,172.695668,904.679688,95.9
511, 15:13:40,69.10977,172.969934,905.788352,95.9
512, 15:13:40,69.135693,173.307173,907.047585,95.9
513, 15:13:40,69.168995,173.57706,906.925426,95.9
514, 15:13:40,69.276436,174.209991,908.745739,95.9
515, 15:13:40,69.345092,174.676847,910.21733,95.9
516, 15:13:40,69.462476,175.315459,912.662642,95.9
517, 15:13:40,69.556897,175.876657,914.620739,95.9
518, 15:13:40,69.628985,176.411577,915.358665,95.9
519, 15:13:40,69.738636,177.026042,916.934659,95.9
520, 15:13:40,69.766335,177.512547,917.401989,95.9
521, 15:13:40,69.863005,178.069129,919.505682,95.9
522, 15:13:40,69.907947,178.505563,920.308949,95.9
523, 15:13:40,70.028291,179.196141,922.111506,95.9
524, 15:13:40,70.139165,179.924598,923.757812,95.9
525, 15:13:40,70.201113,180.33724,925.034801,95.9
526, 15:13:40,70.318497,181.013258,927.036932,95.9
527, 15:13:40,70.37934,181.562737,927.924716,95.9
528, 15:13:40,70.448469,182.141335,929.515625,95.9
529, 15:13:40,70.504972,182.608665,930.921875,95.9
530, 15:13:40,70.594066,183.300663,932.875,95.9
531, 15:13:40,70.540049,183.267401,932.166903,95.9
532, 15:13:40,70.060133,181.748106,926.565341,95.9
533, 15:13:40,69.793324,180.419271,922.106534,95.9
534, 15:13:40,69.681976,179.805398,920.045455,95.9
535, 15:13:40,69.674637,179.647017,919.81108,95.9
536, 15:13:40,69.620305,179.275687,918.472301,95.9
537, 15:13:40,69.575758,178.834754,917.443182,95.9
538, 15:13:40,69.534407,178.716383,916.298295,95.9
539, 15:13:40,69.634115,179.018348,918.834517,95.9
540, 15:13:41,69.690893,179.285275,919.65483,95.875
541, 15:13:41,69.724432,179.505682,920.460227,95.875
542, 15:13:41,69.751854,179.612098,920.794744,95.875
543, 15:13:41,69.742306,179.67294,920.756392,95.875
544, 15:13:41,69.801215,180.005445,922.328125,95.875
545, 15:13:41,69.852746,180.236269,922.599432,95.875
546, 15:13:41,69.944839,180.671638,924.850852,95.875
547, 15:13:41,69.956952,181.03705,924.997869,95.875
548, 15:13:41,70.037918,181.3808,925.799006,95.875
549, 15:13:41,70.043837,181.720052,926.914062,95.875
550, 15:13:41,70.09233,182.089489,927.90625,95.875
551, 15:13:41,70.122909,182.457268,928.050426,95.875
552, 15:13:41,70.161498,182.781842,929.350142,95.875
553, 15:13:41,70.270281,183.262074,931.387784,95.875
554, 15:13:41,70.280619,183.496212,931.761364,95.875
555, 15:13:41,70.401239,184.064512,933.21946,95.875
556, 15:13:41,70.427083,184.293561,933.53125,95.875
557, 15:13:41,70.526634,184.805279,935.965199,95.875
558, 15:13:41,70.515507,185.056463,935.287642,95.875
559, 15:13:41,70.6003,185.518703,937.401989,95.875
560, 15:13:41,70.682805,185.954664,938.310369,95.875
561, 15:13:41,70.753117,186.33795,939.933949,95.875
562, 15:13:41,70.840909,186.746212,940.911932,95.875
563, 15:13:41,70.911577,187.129616,942.135653,95.875
564, 15:13:41,70.931424,187.341146,943.089489,95.875
565, 15:13:41,70.575245,185.991359,937.40554,95.875
566, 15:13:41,70.148319,184.271662,931.774858,95.875
567, 15:13:41,69.928385,183.008641,928.381392,95.875
568, 15:13:41,69.901278,182.601089,926.546875,95.875
569, 15:13:41,69.897569,182.058239,925.798295,95.875
570, 15:13:42,69.846946,181.493016,924.137074,95.875
571, 15:13:42,69.777146,180.824337,922.502841,95.875
572, 15:13:42,69.85535,180.814631,922.492898,95.875
573, 15:13:42,69.9375,180.754735,923.792614,95.875
574, 15:13:42,69.925268,180.550426,922.913352,95.875
575, 15:13:42,69.903488,180.394176,922.399148,95.875
576, 15:13:42,69.892992,180.169981,922.051136,95.875
577, 15:13:42,69.875316,180.11553,922.150568,95.875
578, 15:13:42,69.920139,180.163352,922.670455,95.875
579, 15:13:42,69.976484,180.372633,923.247159,95.875
580, 15:13:42,70.039615,180.534564,923.835227,95.875
581, 15:13:42,70.07264,180.633168,924.458097,95.875
582, 15:13:42,70.136285,180.869555,925.447443,95.875
583, 15:13:42,70.140112,180.978101,925.519176,95.875
584, 15:13:42,70.19405,181.205729,926.026989,95.875
585, 15:13:42,70.206755,181.350379,926.110795,95.875
586, 15:13:42,70.273516,181.636364,927.741477,95.875
587, 15:13:42,70.297664,181.908617,928.076705,95.875
588, 15:13:42,70.35389,182.163471,928.921165,95.875
589, 15:13:42,70.353338,182.564276,929.058949,95.875
590, 15:13:42,70.452849,182.795099,930.932528,95.875
591, 15:13:42,70.503038,183.185724,931.989347,95.875
592, 15:13:42,70.530934,183.517992,932.360795,95.875
593, 15:13:42,70.646701,183.89465,933.944602,95.875
594, 15:13:42,70.545573,183.82706,933.649858,95.875
595, 15:13:42,70.191959,182.263376,927.608665,95.875
596, 15:13:42,69.801057,180.145123,921.203125,95.875
597, 15:13:42,69.634154,178.873106,917.934659,95.875
598, 15:13:42,69.594066,178.155777,915.730114,95.875
599, 15:13:42,69.544152,177.538707,914.78054,95.875
600, 15:13:43,69.451113,176.875118,913.139915,95.875
601, 15:13:43,69.376105,176.381629,912.082386,95.875
602, 15:13:43,69.44843,176.455137,912.708097,95.875
603, 15:13:43,69.467645,176.372159,912.210227,95.875
604, 15:13:43,69.457781,176.265388,912.598011,95.875
605, 15:13:43,69.407473,175.956321,911.769176,95.875
606, 15:13:43,69.400884,175.690341,911.056818,95.875
607, 15:13:43,69.437066,175.627486,911.020597,95.875
608, 15:13:43,69.49203,175.893229,912.086648,95.875
609, 15:13:43,69.54944,176.159209,913.401278,95.875
610, 15:13:43,69.581716,176.375829,913.990767,95.875
611, 15:13:43,69.633247,176.645005,914.787642,95.875
612, 15:13:43,69.640428,176.755563,914.397017,95.875
613, 15:13:43,69.693497,177.125473,916.071023,95.875
614, 15:13:43,69.741438,177.289181,916.121449,95.875
615, 15:13:43,69.80236,177.643348,917.649858,95.875
616, 15:13:43,69.856652,177.940696,918.317472,95.875
617, 15:13:43,69.884154,178.164773,918.596591,95.875
618, 15:13:43,69.997435,178.628196,920.553267,95.875
619, 15:13:43,70.053662,178.976326,921.9375,95.875
620, 15:13:43,70.093671,179.263494,921.53267,95.875
621, 15:13:43,69.770123,178.06179,917.336648,95.875
622, 15:13:43,69.308909,176.010062,910.247869,95.875
623, 15:13:43,69.053385,174.382221,906.84446,95.875
624, 15:13:43,68.998777,173.483073,904.364347,95.875
625, 15:13:43,68.926689,172.74929,903.757102,95.875
626, 15:13:43,68.85539,172.019768,901.340199,95.875
627, 15:13:43,68.778685,171.529711,900.087358,95.875
628, 15:13:43,68.798059,171.470407,900.413352,95.875
629, 15:13:43,68.864544,171.596946,901.78054,95.875
630, 15:13:44,68.886955,171.63151,900.931108,95.625
631, 15:13:44,68.881905,171.59742,901.763494,95.625
632, 15:13:44,68.867582,171.574337,901.769886,95.625
633, 15:13:44,68.904277,171.666903,902.447443,95.625
634, 15:13:44,68.947443,171.887784,902.571023,95.625
635, 15:13:44,69.028567,172.285038,904.375,95.625
636, 15:13:44,69.112216,172.747633,905.633523,95.625
637, 15:13:44,69.14465,173.006392,905.924716,95.625
638, 15:13:44,69.22822,173.548295,907.730114,95.625
639, 15:13:44,69.285196,173.812973,908.792614,95.625
640, 15:13:44,69.328559,174.258404,908.828835,95.625
641, 15:13:44,69.399306,174.725852,910.715909,95.625
642, 15:13:44,69.475655,175.147135,911.220881,95.625
643, 15:13:44,69.56538,175.804096,914.293324,95.625
644, 15:13:44,69.628591,176.17081,913.985085,95.625
645, 15:13:44,69.738518,176.739702,915.84446,95.625
646, 15:13:44,69.772175,177.209044,917.262784,95.625
647, 15:13:44,69.909485,177.933949,919.765625,95.625
648, 15:13:44,69.903488,178.091619,919.535511,95.625
649, 15:13:44,69.627249,177.198509,915.210938,95.625
650, 15:13:44,69.191209,175.459517,908.981534,95.625
651, 15:13:44,68.976562,174.359138,907.151989,95.625
652, 15:13:44,68.990925,174.038589,906.723011,95.625
653, 15:13:44,68.954309,173.69768,905.674716,95.625
654, 15:13:44,68.886521,173.315341,904.130682,95.625
655, 15:13:44,68.826823,172.885298,903.132812,95.625
656, 15:13:44,68.947719,173.301491,905.232244,95.625
657, 15:13:44,69.044508,173.700284,906.352273,95.625
658, 15:13:44,69.084714,173.9942,907.53054,95.625
659, 15:13:44,69.124842,174.226326,908.173295,95.625
660, 15:13:45,69.118766,174.351562,907.867898,95.6
661, 15:13:45,69.221275,174.850379,909.857955,95.6
662, 15:13:45,69.256471,175.149621,910.846591,95.6
663, 15:13:45,69.397688,175.706795,912.345881,95.6
664, 15:13:45,69.46804,176.225616,913.285511,95.6
665, 15:13:45,69.511127,176.784328,915.365057,95.6
666, 15:13:45,69.620423,177.40483,916.826705,95.6
667, 15:13:45,69.671914,177.78705,917.855824,95.6
668, 15:13:45,69.780382,178.414536,918.90767,95.6
669, 15:13:45,69.822404,178.84884,919.834517,95.6
670, 15:13:45,69.953204,179.52107,922.586648,95.6
671, 15:13:45,70.098879,180.220407,923.413352,95.6
672, 15:13:45,70.107284,180.655658,924.496449,95.6
673, 15:13:45,70.209635,181.342921,926.941051,95.6
674, 15:13:45,70.249092,181.893584,927.185369,95.6
675, 15:13:45,70.362492,182.592211,929.78054,95.6
676, 15:13:45,70.352391,182.986151,930.93679,95.6
677, 15:13:45,70.440814,183.805871,933.352273,95.6
678, 15:13:45,70.548808,184.476444,935.105824,95.6
679, 15:13:45,70.5814,184.866832,935.578835,95.6
680, 15:13:45,70.360125,184.22384,933.019176,95.6
681, 15:13:45,69.997514,182.95277,928.054688,95.6
682, 15:13:45,69.850379,182.561553,925.934659,95.6
683, 15:13:45,69.883681,182.627841,927.0625,95.6
684, 15:13:45,69.909328,182.727036,927.254261,95.6
685, 15:13:45,69.90258,182.663234,927.382812,95.6
686, 15:13:45,69.909446,182.675781,927.816051,95.6
687, 15:13:45,69.938644,182.771899,928.003551,95.6
688, 15:13:45,70.064552,183.392045,929.84375,95.6
689, 15:13:45,70.116517,183.71508,930.574574,95.6
690, 15:13:46,70.140586,183.91134,931.783381,95.575
691, 15:13:46,70.198074,184.168561,932.900568,95.575
692, 15:13:46,70.224708,184.385772,933.388494,95.575
693, 15:13:46,70.280855,184.806581,934.362216,95.575
694, 15:13:46,70.34012,185.146307,934.536932,95.575
695, 15:13:46,70.405579,185.544389,936.169744,95.575
696, 15:13:46,70.47092,185.97242,937.479403,95.575
697, 15:13:46,70.518979,186.319721,938.824574,95.575
698, 15:13:46,70.586332,186.773674,939.826705,95.575
699, 15:13:46,70.64974,187.163707,941.357244,95.575
700, 15:13:46,70.697325,187.699929,942.776278,95.575
701, 15:13:46,70.74854,187.980942,943.90554,95.575
702, 15:13:46,70.845289,188.617779,945.286222,95.575
703, 15:13:46,70.849708,188.928859,946.681108,95.575
704, 15:13:46,70.87208,189.361979,946.40483,95.575
705, 15:13:46,70.992227,189.970052,949.095881,95.575
706, 15:13:46,71.037563,190.452652,950.045455,95.575
707, 15:13:46,71.122238,190.930161,951.731534,95.575
708, 15:13:46,71.15483,191.372159,953.014205,95.575
709, 15:13:46,71.238913,191.910393,954.215199,95.575
710, 15:13:46,71.278804,192.242661,954.848011,95.575
711, 15:13:46,71.373264,192.774148,956.991477,95.575
712, 15:13:46,71.339804,192.919508,956.690341,95.575
713, 15:13:46,70.999882,191.788471,952.117188,95.575
714, 15:13:46,70.720604,190.613518,948.379972,95.575
715, 15:13:46,70.669389,190.344815,947.693892,95.575
716, 15:13:46,70.675229,190.345762,947.605824,95.575
717, 15:13:46,70.69405,190.324574,948.268466,95.575
718, 15:13:46,70.69259,190.292259,947.935369,95.575
719, 15:13:46,70.674164,190.083097,947.509943,95.575
720, 15:13:47,70.744003,190.280777,948.289773,95.575
721, 15:13:47,70.791193,190.482008,948.463068,95.575
722, 15:13:47,70.806818,190.617424,948.951705,95.575
723, 15:13:47,70.811514,190.583688,949.03054,95.575
724, 15:13:47,70.822049,190.569366,948.927557,95.575
725, 15:13:47,70.850142,190.691998,949.302557,95.575
726, 15:13:47,70.856574,190.822562,949.912642,95.575
727, 15:13:47,70.925308,191.067116,951.073153,95.575
728, 15:13:47,70.966817,191.273082,951.408381,95.575
729, 15:13:47,71.036301,191.594223,952.622159,95.575
730, 15:13:47,71.044152,191.686908,952.99929,95.575
731, 15:13:47,71.113518,192.033262,954.139915,95.575
732, 15:13:47,71.157197,192.210227,954.752841,95.575
733, 15:13:47,71.178267,192.419271,954.802557,95.575
734, 15:13:47,71.216185,192.630563,955.365767,95.575
735, 15:13:47,71.258483,192.792022,956.584517,95.575
736, 15:13:47,71.35685,193.230114,957.803977,95.575
737, 15:13:47,71.341422,193.335819,957.898438,95.575
738, 15:13:47,71.416706,193.741122,958.827415,95.575
739, 15:13:47,71.495068,194.042495,960.59304,95.575
740, 15:13:47,71.511324,194.280185,961.178267,95.575
741, 15:13:47,71.575915,194.572917,962.545455,95.575
742, 15:13:47,71.424716,194.004261,960.09375,95.575
743, 15:13:47,71.036419,192.426018,953.772017,95.575
744, 15:13:47,70.783973,191.195194,949.977983,95.575
745, 15:13:47,70.795415,190.937855,949.757812,95.575
746, 15:13:47,70.773911,190.60393,949.208807,95.575
747, 15:13:47,70.779159,190.262192,948.391335,95.575
748, 15:13:47,70.741477,189.881155,946.849432,95.575
749, 15:13:47,70.788826,189.784091,947.514205,95.575
750, 15:13:48,70.811908,189.885062,947.426847,95.55
751, 15:13:48,70.819089,189.66134,947.43679,95.55
752, 15:13:48,70.794231,189.32919,946.918324,95.55
753, 15:13:48,70.780224,189.158381,946.174716,95.55
754, 15:13:48,70.802754,189.021899,945.915483,95.55
755, 15:13:48,70.794626,188.984257,945.664062,95.55
756, 15:13:48,70.850537,189.105587,946.258523,95.55
757, 15:13:48,70.876854,189.167022,947.578835,95.55
758, 15:13:48,70.906684,189.269768,947.547585,95.55
759, 15:13:48,70.945234,189.367898,947.985795,95.55
760, 15:13:48,70.944208,189.466146,948.117898,95.55
761, 15:13:48,71.00363,189.593277,948.903409,95.55
762, 15:13:48,71.015664,189.661577,948.87571,95.55
763, 15:13:48,71.048966,189.771899,949.290483,95.55
764, 15:13:48,71.059501,189.903409,949.471591,95.55
765, 15:13:48,71.131866,190.238873,950.90483,95.55
766, 15:13:48,71.156802,190.431581,951.90483,95.55
767, 15:13:48,71.193932,190.585582,951.729403,95.55
768, 15:13:48,71.065657,189.982955,950.190341,95.55
769, 15:13:48,70.64173,188.088542,943.039773,95.55
770, 15:13:48,70.447088,186.701586,938.914062,95.55
771, 15:13:48,70.34233,185.892045,936.426136,95.55
772, 15:13:48,70.322483,185.412997,936.21946,95.55
773, 15:13:48,70.265033,184.798414,934.935369,95.55
774, 15:13:48,70.175229,184.18241,932.236506,95.55
775, 15:13:48,70.172072,183.879853,932.020597,95.55
776, 15:13:48,70.220644,183.87358,932.633523,95.55
777, 15:13:48,70.247948,183.80303,932.90625,95.55
778, 15:13:48,70.162445,183.37133,930.861506,95.55
779, 15:13:48,70.146228,183.191051,930.742898,95.55
780, 15:13:49,70.124487,183.008878,930.445312,95.525
781, 15:13:49,70.141217,182.949219,929.99929,95.525
782, 15:13:49,70.168837,182.980942,930.885653,95.525
783, 15:13:49,70.204467,183.043324,931.191761,95.525
784, 15:13:49,70.253512,183.170573,931.796165,95.525
785, 15:13:49,70.269058,183.2442,932.323153,95.525
786, 15:13:49,70.309856,183.400687,932.435369,95.525
787, 15:13:49,70.34233,183.503788,933.136364,95.525
788, 15:13:49,70.394452,183.75438,933.784801,95.525
789, 15:13:49,70.388849,183.896662,933.888494,95.525
790, 15:13:49,70.453204,184.132812,934.359375,95.525
791, 15:13:49,70.516848,184.388613,936.328835,95.525
792, 15:13:49,70.531329,184.615294,936.115057,95.525
793, 15:13:49,70.592448,184.894768,937.479403,95.525
794, 15:13:49,70.644807,185.161222,937.734375,95.525
795, 15:13:49,70.737571,185.636009,939.230824,95.525
796, 15:13:49,70.775134,185.798887,939.997869,95.525
797, 15:13:49,70.548808,185.039891,937.06321,95.525
798, 15:13:49,70.119121,183.284446,930.317472,95.525
799, 15:13:49,69.913352,182.194602,926.997159,95.525
800, 15:13:49,69.878393,181.622396,925.87358,95.525
801, 15:13:49,69.881155,180.981534,924.917614,95.525
802, 15:13:49,69.872711,180.613873,924.322443,95.525
803, 15:13:49,69.785038,179.84375,921.9375,95.525
804, 15:13:49,69.794271,179.718513,922.083807,95.525
805, 15:13:49,69.836174,179.792614,922.375,95.525
806, 15:13:49,69.87354,179.747514,922.161222,95.525
807, 15:13:49,69.894018,179.830256,922.825284,95.525
808, 15:13:49,69.886443,179.798059,923.492898,95.525
809, 15:13:49,69.926768,179.817235,922.650568,95.525
810, 15:13:50,69.938092,179.862571,922.851562,95.525
811, 15:13:50,70.005248,180.153527,923.821733,95.525
812, 15:13:50,70.036182,180.336293,923.96946,95.525
813, 15:13:50,70.15483,180.807765,926.826705,95.525
814, 15:13:50,70.184975,181.016098,926.420455,95.525
815, 15:13:50,70.229759,181.310014,927.695312,95.525
816, 15:13:50,70.286774,181.65767,928.982955,95.525
817, 15:13:50,70.325797,181.979285,929.122869,95.525
818, 15:13:50,70.401673,182.401515,931.258523,95.525
819, 15:13:50,70.417259,182.749882,931.649858,95.525
820, 15:13:50,70.523398,183.339607,933.037642,95.525
821, 15:13:50,70.556463,183.660866,934.121449,95.525
822, 15:13:50,70.606297,184.168797,935.348011,95.525
823, 15:13:50,70.700797,184.721709,937.43821,95.525
824, 15:13:50,70.733349,185.063684,937.99858,95.525
825, 15:13:50,70.815065,185.543679,939.733665,95.525
826, 15:13:50,70.861861,185.944957,940.15554,95.525
827, 15:13:50,70.961095,186.482718,942.291193,95.525
828, 15:13:50,70.996449,186.822206,942.913352,95.525
829, 15:13:50,71.092566,187.402699,944.65483,95.525
830, 15:13:50,71.069997,187.567472,944.893466,95.525
831, 15:13:50,70.664852,186.069839,939.134943,95.525
832, 15:13:50,70.37283,184.91205,934.932528,95.525
833, 15:13:50,70.285472,184.324219,933.931108,95.525
834, 15:13:50,70.329506,184.320904,933.638494,95.525
835, 15:13:50,70.33574,184.101444,933.514915,95.525
836, 15:13:50,70.317945,183.843987,932.296875,95.525
837, 15:13:50,70.286419,183.632457,931.235085,95.525
838, 15:13:50,70.340909,183.742424,932.011364,95.525
839, 15:13:50,70.445115,183.940459,933.151278,95.525
840, 15:13:51,70.445115,184.062618,933.617188,95.5
841, 15:13:51,70.479048,184.105705,934.00071,95.5
842, 15:13:51,70.475418,184.142637,933.668324,95.5
843, 15:13:51,70.495226,184.300071,934.416903,95.5
844, 15:13:51,70.514047,184.472538,935.048295,95.5
845, 15:13:51,70.590712,184.792022,936.46804,95.5
846, 15:13:51,70.685251,185.205848,937.351562,95.5
847, 15:13:51,70.7253,185.386127,938.487216,95.5
848, 15:13:51,70.755958,185.720999,938.019176,95.5
849, 15:13:51,70.803228,185.915838,939.225142,95.5
850, 15:13:51,70.86194,186.362334,940.674006,95.5
851, 15:13:51,70.913076,186.684304,942.154119,95.5
852, 15:13:51,70.991753,187.048177,942.735085,95.5
853, 15:13:51,71.041312,187.394295,944.223722,95.5
854, 15:13:51,71.076902,187.639323,944.554688,95.5
855, 15:13:51,71.167337,188.104759,945.705256,95.5
856, 15:13:51,71.209399,188.441643,946.925426,95.5
857, 15:13:51,71.257063,188.831321,948.027699,95.5
858, 15:13:51,71.338502,189.202533,948.825994,95.5
859, 15:13:51,71.406211,189.56901,950.138494,95.5
860, 15:13:51,71.464449,190.072325,951.450994,95.5
861, 15:13:51,71.527304,190.451705,952.352273,95.5
862, 15:13:51,71.516375,190.515033,952.59304,95.5
863, 15:13:51,71.140507,189.062145,947.09446,95.5
864, 15:13:51,70.823785,187.653646,941.546875,95.5
865, 15:13:51,70.75651,187.001539,941.12571,95.5
866, 15:13:51,70.767361,186.733902,940.471591,95.5
867, 15:13:51,70.808239,186.618845,940.278409,95.5
868, 15:13:51,70.727943,186.052675,938.506392,95.5
869, 15:13:51,70.734533,185.819602,938.323864,95.5
870, 15:13:52,70.761798,185.854522,938.360085,95.5
871, 15:13:52,70.805358,185.864465,938.862926,95.5
872, 15:13:52,70.794942,185.756984,937.93679,95.5
873, 15:13:52,70.763021,185.499763,937.839489,95.5
874, 15:13:52,70.78488,185.460227,937.292614,95.5
875, 15:13:52,70.800545,185.443774,937.534801,95.5
876, 15:13:52,70.83428,185.57339,937.59375,95.5
877, 15:13:52,70.868174,185.806226,938.519176,95.5
878, 15:13:52,70.955137,185.978575,939.706676,95.5
879, 15:13:52,71.005051,186.203125,940.696023,95.5
880, 15:13:52,71.048295,186.46733,941.335227,95.5
881, 15:13:52,71.076705,186.708807,941.980114,95.5
882, 15:13:52,71.0872,186.817472,941.944602,95.5
883, 15:13:52,71.14895,187.145715,943.050426,95.5
884, 15:13:52,71.160788,187.279238,943.422585,95.5
885, 15:13:52,71.258681,187.633049,944.971591,95.5
886, 15:13:52,71.310448,187.958807,945.803977,95.5
887, 15:13:52,71.356574,188.237334,946.227983,95.5
888, 15:13:52,71.434817,188.615057,947.142045,95.5
889, 15:13:52,71.461924,188.802438,948.479403,95.5
890, 15:13:52,71.412011,188.687737,946.950284,95.5
891, 15:13:52,70.990807,186.849787,940.504972,95.5
892, 15:13:52,70.729127,185.368726,936.323153,95.5
893, 15:13:52,70.640388,184.522017,934.075284,95.5
894, 15:13:52,70.650844,184.073745,933.203835,95.5
895, 15:13:52,70.647648,183.522964,931.774148,95.5
896, 15:13:52,70.585227,182.941288,930.494318,95.5
897, 15:13:52,70.553898,182.538116,929.447443,95.5
898, 15:13:52,70.589725,182.524384,929.734375,95.5
899, 15:13:52,70.623106,182.544981,929.920455,95.5
900, 15:13:53,70.605311,182.333452,929.424006,95.45
901, 15:13:53,70.59738,182.239583,929.465909,95.45
902, 15:13:53,70.595881,182.129498,929.078125,95.45
903, 15:13:53,70.612374,182.107481,928.769886,95.45
904, 15:13:53,70.658341,182.320194,929.409801,95.45
905, 15:13:53,70.71291,182.452178,930.511364,95.45
906, 15:13:53,70.782868,182.720762,931.668324,95.45
907, 15:13:53,70.834596,183.008049,932.809659,95.45
908, 15:13:53,70.884864,183.240767,933.268466,95.45
909, 15:13:53,70.897412,183.441288,933.440341,95.45
910, 15:13:53,70.93608,183.671875,934.426136,95.45
911, 15:13:53,71.029751,184.096354,935.870739,95.45
912, 15:13:53,71.036301,184.260417,935.539773,95.45
913, 15:13:53,71.158262,184.712476,937.979403,95.45
914, 15:13:53,71.164378,184.917377,938.083807,95.45
915, 15:13:53,71.255287,185.343513,939.632102,95.45
916, 15:13:53,71.323074,185.753314,940.681818,95.45
917, 15:13:53,71.295652,185.945668,941.134233,95.45
918, 15:13:53,71.101681,185.170099,937.40696,95.45
919, 15:13:53,70.618608,182.9491,930.544034,95.45
920, 15:13:53,70.411735,181.468158,926.098722,95.45
921, 15:13:53,70.285709,180.525213,923.71946,95.45
922, 15:13:53,70.225024,179.84742,922.283381,95.45
923, 15:13:53,70.099471,178.998224,920.199574,95.45
924, 15:13:53,69.990096,178.263376,917.702415,95.45
925, 15:13:53,69.984651,177.940696,918.164062,95.45
926, 15:13:53,70.005051,177.88589,918.190341,95.45
927, 15:13:53,70.040128,177.957031,918.330256,95.45
928, 15:13:53,70.031368,177.837003,918.027699,95.45
929, 15:13:53,70.000908,177.761719,918.365767,95.45
930, 15:13:54,70.019452,177.624645,917.421165,95.425
931, 15:13:54,70.038116,177.799006,918.521307,95.425
932, 15:13:54,70.115767,178.077888,919.84517,95.425
933, 15:13:54,70.151673,178.250473,920.136364,95.425
934, 15:13:54,70.248027,178.626184,921.867898,95.425
935, 15:13:54,70.27399,178.857955,922.409091,95.425
936, 15:13:54,70.350182,179.124882,922.979403,95.425
937, 15:13:54,70.384667,179.398793,923.904119,95.425
938, 15:13:54,70.410669,179.645833,924.232955,95.425
939, 15:13:54,70.476128,180.002249,925.71804,95.425
940, 15:13:54,70.545731,180.355469,926.414062,95.425
941, 15:13:54,70.627841,180.772254,928.119318,95.425
942, 15:13:54,70.656289,181.034683,927.713778,95.425
943, 15:13:54,70.755248,181.563565,929.932528,95.425
944, 15:13:54,70.781368,181.821378,929.720881,95.425
945, 15:13:54,70.828756,182.17661,930.389205,95.425
946, 15:13:54,70.896899,182.516454,932.394176,95.425
947, 15:13:54,71.003157,183.023201,934.025568,95.425
948, 15:13:54,71.103575,183.497751,935.818892,95.425
949, 15:13:54,71.060724,183.535866,934.945312,95.425
950, 15:13:54,70.727036,182.128078,930.140625,95.425
951, 15:13:54,70.201428,179.741596,922.378551,95.425
952, 15:13:54,69.936277,178.112334,917.040483,95.425
953, 15:13:54,69.836095,177.074574,915.299716,95.425
954, 15:13:54,69.797585,176.357718,913.96733,95.425
955, 15:13:54,69.663944,175.511245,911.661222,95.425
956, 15:13:54,69.550742,174.754025,909.987216,95.425
957, 15:13:54,69.58645,174.563802,910.229403,95.425
958, 15:13:54,69.595723,174.539062,910.115057,95.425
959, 15:13:54,69.630287,174.669744,911.046875,95.425
960, 15:13:55,69.598682,174.661103,910.693892,95.15
961, 15:13:55,69.619318,174.619792,910.801136,95.15
962, 15:13:55,69.667259,174.661813,911.090199,95.15
963, 15:13:55,69.68967,174.79723,911.74929,95.15
964, 15:13:55,69.73986,175.10831,912.345881,95.15
965, 15:13:55,69.826034,175.460582,913.340199,95.15
966, 15:13:55,69.893269,175.892401,915.027699,95.15
967, 15:13:55,69.937737,176.150331,915.237216,95.15
968, 15:13:55,70.001263,176.521307,915.857955,95.15
969, 15:13:55,70.061553,176.87358,917.420455,95.15
970, 15:13:55,70.119003,177.141572,917.84375,95.15
971, 15:13:55,70.170257,177.595052,919.789062,95.15
972, 15:13:55,70.234059,177.96733,920.110795,95.15
973, 15:13:55,70.308673,178.432647,921.59304,95.15
974, 15:13:55,70.373935,178.918679,923.557528,95.15
975, 15:13:55,70.494515,179.39169,924.716619,95.15
976, 15:13:55,70.499763,179.647964,924.734375,95.15
977, 15:13:55,70.565341,180.136364,926.267045,95.15
978, 15:13:55,70.660669,180.568182,927.6875,95.15
979, 15:13:55,70.716896,180.931937,928.43821,95.15
980, 15:13:55,70.80303,181.385417,929.514205,95.15
981, 15:13:55,70.839055,181.700402,930.799006,95.15
982, 15:13:55,70.574534,180.821141,926.62571,95.15
983, 15:13:55,70.008404,178.427675,918.605824,95.15
984, 15:13:55,69.724826,176.446259,912.987216,95.15
985, 15:13:55,69.608704,175.251302,910.939631,95.15
986, 15:13:55,69.542693,174.560369,909.419034,95.15
987, 15:13:55,69.509036,174.029474,908.179688,95.15
988, 15:13:55,69.385851,173.219105,905.766335,95.15
989, 15:13:55,69.37133,173.054806,906.547585,95.15
990, 15:13:56,69.446259,173.138021,906.430398,95.15
991, 15:13:56,69.501854,173.315696,908.291903,95.15
992, 15:13:56,69.479127,173.304332,907.064631,95.15
993, 15:13:56,69.466817,173.135298,906.328835,95.15
994, 15:13:56,69.490057,173.17661,905.903409,95.15
995, 15:13:56,69.546086,173.440814,907.823864,95.15
996, 15:13:56,69.635732,173.878314,909.474432,95.15
997, 15:13:56,69.689354,174.197325,910.604403,95.15
998, 15:13:56,69.766256,174.637311,911.994318,95.15
999, 15:13:56,69.817985,174.853101,912.098722,95.15
1000, 15:13:56,69.848524,175.229759,912.852983,95.15
1001, 15:13:56,69.943221,175.529001,915.159801,95.15
1002, 15:13:56,69.957189,175.768821,914.666903,95.15
1003, 15:13:56,70.047112,176.256392,915.643466,95.15
1004, 15:13:56,70.07268,176.544744,916.450284,95.15
1005, 15:13:56,70.154001,177.039181,918.323153,95.15
1006, 15:13:56,70.228062,177.340436,919.147727,95.15
1007, 15:13:56,70.29652,177.794389,920.166903,95.15
1008, 15:13:56,70.398319,178.343158,921.487926,95.15
1009, 15:13:56,70.423848,178.671638,922.421875,95.15
1010, 15:13:56,70.479601,179.018821,923.34304,95.15
1011, 15:13:56,70.227746,178.034091,919.397727,95.15
1012, 15:13:56,69.757457,175.764796,912.881392,95.15
1013, 15:13:56,69.389362,173.593277,906.142045,95.15
1014, 15:13:56,69.235795,172.430398,903.607955,95.15
1015, 15:13:56,69.169074,171.765743,901.946733,95.15
1016, 15:13:56,69.120502,171.231297,900.382102,95.15
1017, 15:13:56,69.056226,170.853338,900.435369,95.15
1018, 15:13:56,69.074771,170.720999,899.970881,95.15
1019, 15:13:56,69.144373,170.949692,901.320312,95.15
1020, 15:13:57,69.155106,171.018821,900.479403,95.15
1021, 15:13:57,69.145873,171.049834,901.080256,95.15
1022, 15:13:57,69.137902,170.991832,900.845881,95.15
1023, 15:13:57,69.134312,171.005682,900.894886,95.15
1024, 15:13:57,69.218987,171.31179,901.97017,95.15
1025, 15:13:57,69.365372,171.820549,904.667614,95.15
1026, 15:13:57,69.424953,172.245975,905.65483,95.15
1027, 15:13:57,69.500039,172.638376,906.28196,95.15
1028, 15:13:57,69.557371,173.076468,907.143466,95.15
1029, 15:13:57,69.614504,173.281013,908.464489,95.15
1030, 15:13:57,69.712792,173.773793,909.236506,95.15
1031, 15:13:57,69.726602,174.01598,910.18679,95.15
1032, 15:13:57,69.792101,174.337003,910.860085,95.15
1033, 15:13:57,69.8445,174.716264,911.365767,95.15
1034, 15:13:57,69.923532,175.187737,913.40767,95.15
1035, 15:13:57,70.005524,175.736742,914.272727,95.15
1036, 15:13:57,70.084438,176.193182,915.877841,95.15
1037, 15:13:57,70.002644,175.890033,914.598722,95.15
1038, 15:13:57,69.467645,173.738163,906.59375,95.15
1039, 15:13:57,69.045297,171.330966,900.409091,95.15
1040, 15:13:57,68.769847,169.750829,895.806108,95.15
1041, 15:13:57,68.644689,168.885772,893.394176,95.15
1042, 15:13:57,68.506392,168.120975,892.089489,95.15
1043, 15:13:57,68.4055,167.508641,889.574574,95.15
1044, 15:13:57,68.363123,167.195904,889.223722,95.15
1045, 15:13:57,68.426807,167.413944,890.347301,95.15
1046, 15:13:57,68.511285,167.6991,891.59517,95.15
1047, 15:13:57,68.517361,167.833807,891.730114,95.15
1048, 15:13:57,68.529593,167.872396,892.117898,95.15
1049, 15:13:57,68.540522,168.002723,892.075994,95.15
1050, 15:13:58,68.587871,168.238045,892.706676,94.9
1051, 15:13:58,68.695589,168.735914,894.424006,94.9
1052, 15:13:58,68.772964,169.09304,895.552557,94.9
1053, 15:13:58,68.868568,169.592448,897.395597,94.9
1054, 15:13:58,68.913589,170.026278,897.99858,94.9
1055, 15:13:58,69.046559,170.544981,899.71875,94.9
1056, 15:13:58,69.084557,170.848366,900.078835,94.9
1057, 15:13:58,69.157236,171.333452,901.949574,94.9
1058, 15:13:58,69.243411,171.846709,903.65696,94.9
1059, 15:13:58,69.314276,172.270478,904.100142,94.9
1060, 15:13:58,69.421678,172.842211,906.147017,94.9
1061, 15:13:58,69.495028,173.276752,907.65767,94.9
1062, 15:13:58,69.574692,173.864702,908.463778,94.9
1063, 15:13:58,69.608823,174.307055,909.671875,94.9
1064, 15:13:58,69.751499,174.99929,911.21733,94.9
1065, 15:13:58,69.819444,175.567708,913.088068,94.9
1066, 15:13:58,69.809225,175.531368,912.821733,94.9
1067, 15:13:58,69.351957,173.736742,906.255682,94.9
1068, 15:13:58,68.84154,171.349432,899.107955,94.9
1069, 15:13:58,68.63226,169.952178,894.974432,94.9
1070, 15:13:58,68.539852,169.121922,892.930398,94.9
1071, 15:13:58,68.43387,168.583807,891.914773,94.9
1072, 15:13:58,68.303701,167.905421,889.560369,94.9
1073, 15:13:58,68.269965,167.608191,888.629261,94.9
1074, 15:13:58,68.319208,167.861979,889.424716,94.9
1075, 15:13:58,68.437263,168.301373,891.651989,94.9
1076, 15:13:58,68.505327,168.647609,892.53054,94.9
1077, 15:13:58,68.527028,168.74349,892.960938,94.9
1078, 15:13:58,68.594658,169.07848,894.050426,94.9
1079, 15:13:58,68.625355,169.360914,894.943892,94.9
1080, 15:13:59,68.766059,169.907079,895.43679,94.95
1081, 15:13:59,68.833373,170.416785,898.352983,94.95
1082, 15:13:59,68.916548,170.946615,899.051847,94.95
1083, 15:13:59,69.013021,171.578835,900.580966,94.95
1084, 15:13:59,69.091185,172.063802,902.325994,94.95
1085, 15:13:59,69.166627,172.643821,903.740767,94.95
1086, 15:13:59,69.267716,173.036103,905.318892,94.95
1087, 15:13:59,69.39386,173.670218,906.72017,94.95
1088, 15:13:59,69.42953,174.150805,907.43892,94.95
1089, 15:13:59,69.54727,174.823153,909.759943,94.95
1090, 15:13:59,69.589489,175.403409,910.536932,94.95
1091, 15:13:59,69.697956,175.978338,912.091619,94.95
1092, 15:13:59,69.833097,176.649858,914.839489,94.95
1093, 15:13:59,69.911064,177.193892,915.978693,94.95
1094, 15:13:59,69.998027,177.76965,917.294034,94.95
1095, 15:13:59,70.047348,178.206439,918.710227,94.95
1096, 15:13:59,70.15913,178.963187,920.838778,94.95
1097, 15:13:59,70.247514,179.484493,922.449574,94.95
1098, 15:13:59,70.234809,179.610204,921.703835,94.95
1099, 15:13:59,69.835188,178.000355,915.450994,94.95
1100, 15:13:59,69.374092,176.136009,908.747869,94.95
1101, 15:13:59,69.180871,174.883523,906.264205,94.95
1102, 15:13:59,69.132931,174.353812,905.620028,94.95
1103, 15:13:59,69.109454,173.983665,904.81108,94.95
1104, 15:13:59,68.99637,173.326705,902.039773,94.95
1105, 15:13:59,68.945865,173.133523,902.392045,94.95
1106, 15:13:59,69.029711,173.146899,903.020597,94.95
1107, 15:13:59,69.072443,173.420928,904.105114,94.95
1108, 15:13:59,69.132221,173.657079,904.402699,94.95
1109, 15:13:59,69.136245,173.725024,905.517756,94.95
1110, 15:14:00,69.17511,173.852983,905.137784,94.95
1111, 15:14:00,69.194523,174.007812,905.808239,94.95
1112, 15:14:00,69.270399,174.377959,906.361506,94.95
1113, 15:14:00,69.301689,174.738873,907.353693,94.95
1114, 15:14:00,69.421717,175.16572,908.991477,94.95
1115, 15:14:00,69.555713,175.784564,910.792614,94.95
1116, 15:14:00,69.539931,176.149148,911.105114,94.95
1117, 15:14:00,69.638889,176.589962,912.653409,94.95
1118, 15:14:00,69.689749,177.003906,913.477983,94.95
1119, 15:14:00,69.782513,177.387311,914.75,94.95
1120, 15:14:00,69.87137,177.796875,916.5,94.95
1121, 15:14:00,69.965909,178.41572,918.238636,94.95
1122, 15:14:00,70.02474,178.851207,919.246449,94.95
1123, 15:14:00,70.144373,179.34742,920.220881,94.95
1124, 15:14:00,70.234888,179.845762,922.367188,94.95
1125, 15:14:00,70.260772,180.114228,922.040483,94.95
1126, 15:14:00,70.359336,180.749408,924.166903,94.95
1127, 15:14:00,70.439157,181.142282,925.646307,94.95
1128, 15:14:00,70.510101,181.410038,926.465909,94.95
1129, 15:14:00,70.174834,180.365885,922.053267,94.95
1130, 15:14:00,69.717014,178.367424,915.008523,94.95
1131, 15:14:00,69.441051,176.954782,910.81108,94.95
1132, 15:14:00,69.365057,176.15625,908.909091,94.95
1133, 15:14:00,69.336727,175.761127,908.194602,94.95
1134, 15:14:00,69.240333,175.136245,907.067472,94.95
1135, 15:14:00,69.227983,174.748343,906.294034,94.95
1136, 15:14:00,69.243134,174.69768,906.169034,94.95
1137, 15:14:00,69.311592,174.862808,907.588778,94.95
1138, 15:14:00,69.315025,174.796402,907.144886,94.95
1139, 15:14:00,69.230429,174.775095,906.386364,94.95
1140, 15:14:01,69.280895,174.63956,906.888494,94.95
1141, 15:14:01,69.316564,174.787287,907.303267,94.95
1142, 15:14:01,69.360361,174.928149,907.537642,94.95
1143, 15:14:01,69.40408,175.188565,908.716619,94.95
1144, 15:14:01,69.518071,175.593987,910.09517,94.95
1145, 15:14:01,69.539773,175.806818,910.363636,94.95
1146, 15:14:01,69.605705,176.155658,911.766335,94.95
1147, 15:14:01,69.626854,176.469579,911.425426,94.95
1148, 15:14:01,69.663471,176.726681,912.377131,94.95
1149, 15:14:01,69.715159,177.017637,913.321733,94.95
1150, 15:14:01,69.756471,177.263258,913.886364,94.95
1151, 15:14:01,69.840515,177.597775,915.214489,94.95
1152, 15:14:01,69.882181,177.876184,915.640625,94.95
1153, 15:14:01,69.98402,178.428385,917.806108,94.95
1154, 15:14:01,70.053307,178.810961,919.308949,94.95
1155, 15:14:01,70.017519,178.76089,918.346591,94.95
1156, 15:14:01,69.604837,177.185724,911.963778,94.95
1157, 15:14:01,69.165641,175.039062,905.816761,94.95
1158, 15:14:01,68.94551,173.557173,901.556108,94.95
1159, 15:14:01,68.870265,172.525568,899.269886,94.95
1160, 15:14:01,68.813447,171.897727,898.306818,94.95
1161, 15:14:01,68.733744,171.256629,896.755682,94.95
1162, 15:14:01,68.709201,170.827415,895.46733,94.95
1163, 15:14:01,68.770518,170.937027,896.985795,94.95
1164, 15:14:01,68.785985,171.088068,897.184659,94.95
1165, 15:14:01,68.813486,171.123698,898.398438,94.95
1166, 15:14:01,68.811553,170.983902,897.184659,94.95
1167, 15:14:01,68.843434,171.013731,897.744318,94.95
1168, 15:14:01,68.87642,171.16714,897.806818,94.95
1169, 15:14:01,68.914457,171.360322,899.159091,94.95
1170, 15:14:02,69.026121,171.924006,900.848011,94.95
1171, 15:14:02,69.083965,172.204072,901.926136,94.95
1172, 15:14:02,69.172348,172.582386,903.59375,94.95
1173, 15:14:02,69.233744,172.919981,903.707386,94.95
1174, 15:14:02,69.264441,173.195312,904.274148,94.95
1175, 15:14:02,69.290838,173.454427,905.516335,94.95
1176, 15:14:02,69.353693,173.838542,906.048295,94.95
1177, 15:14:02,69.410117,174.226562,907.294034,94.95
1178, 15:14:02,69.421678,174.550071,906.800426,94.95
1179, 15:14:02,69.535077,175.09008,909.051847,94.95
1180, 15:14:02,69.58937,175.347183,910.409801,94.95
1181, 15:14:02,69.691367,175.915009,911.586648,94.95
1182, 15:14:02,69.721512,176.172112,912.083807,94.95
1183, 15:14:02,69.413037,175.067235,907.397727,94.95
1184, 15:14:02,68.900292,172.639323,900.53196,94.95
1185, 15:14:02,68.531013,170.428741,894.359375,94.95
1186, 15:14:02,68.410866,169.374645,891.296165,94.95
1187, 15:14:02,68.228812,168.446851,888.672585,94.95
1188, 15:14:02,68.149266,167.643348,887.073153,94.95
1189, 15:14:02,68.005129,166.846828,884.566761,94.95
1190, 15:14:02,68.004182,166.755919,885.012784,94.95
1191, 15:14:02,68.084201,166.974195,886.018466,94.95
1192, 15:14:02,68.138731,167.178977,886.991477,94.95
1193, 15:14:02,68.149148,167.230114,886.806818,94.95
1194, 15:14:02,68.143229,167.263494,886.808239,94.95
1195, 15:14:02,68.195668,167.394768,887.533381,94.95
1196, 15:14:02,68.235559,167.661222,887.99858,94.95
1197, 15:14:02,68.379695,168.183594,891.070312,94.95
1198, 15:14:02,68.415443,168.486387,891.762074,94.95
1199, 15:14:02,68.554253,169.014086,893.740767,94.95
1200, 15:14:03,68.631234,169.473248,894.669034,94.95
1201, 15:14:03,68.682844,169.841619,896.06108,94.95
1202, 15:14:03,68.757063,170.196378,896.757812,94.95
1203, 15:14:03,68.809146,170.51456,896.828835,94.95
1204, 15:14:03,68.886009,171.004616,898.661222,94.95
1205, 15:14:03,68.94622,171.415365,900.102983,94.95
1206, 15:14:03,69.05307,171.953717,902.043324,94.95
1207, 15:14:03,69.108704,172.444957,902.877131,94.95
1208, 15:14:03,69.222025,172.917022,904.24929,94.95
1209, 15:14:03,69.264441,173.352036,905.84233,94.95
1210, 15:14:03,69.312934,173.668442,906.735085,94.95
1211, 15:14:03,69.382221,174.151397,907.590199,94.95
1212, 15:14:03,69.442629,174.633759,908.458807,94.95
1213, 15:14:03,69.557173,175.171993,910.512074,94.95
1214, 15:14:03,69.463976,174.837003,908.894176,94.95
1215, 15:14:03,68.963344,172.753196,901.638494,94.95
1216, 15:14:03,68.427202,170.071851,893.698153,94.95
1217, 15:14:03,68.177872,168.386837,888.869318,94.95
1218, 15:14:03,68.050979,167.478693,886.409091,94.95
1219, 15:14:03,67.918837,166.783026,884.902699,94.95
1220, 15:14:03,67.812737,166.064631,882.444602,94.95
1221, 15:14:03,67.725734,165.442827,881.049006,94.95
1222, 15:14:03,67.790088,165.617898,881.988636,94.95
1223, 15:14:03,67.864386,165.879143,883.644176,94.95
1224, 15:14:03,67.954388,166.241951,884.886364,94.95
1225, 15:14:03,67.951744,166.350024,885.341619,94.95
1226, 15:14:03,67.966106,166.432884,885.128551,94.95
1227, 15:14:03,68.047861,166.73544,886.085938,94.95
1228, 15:14:03,68.117937,167.05883,887.270597,94.95
1229, 15:14:03,68.252446,167.627604,890.163352,94.95
1230, 15:14:04,68.304845,168.059422,890.080966,94.95
1231, 15:14:04,68.458412,168.657907,892.762784,94.95
1232, 15:14:04,68.546993,169.095052,893.706676,94.95
1233, 15:14:04,68.597104,169.468868,894.441051,94.95
1234, 15:14:04,68.686671,170.064749,896.490767,94.95
1235, 15:14:04,68.756313,170.35464,897.119318,94.95
1236, 15:14:04,68.796007,170.794744,898.382102,94.95
1237, 15:14:04,68.904356,171.309659,900.161932,94.95
1238, 15:14:04,68.996409,171.870384,901.176847,94.95
1239, 15:14:04,69.083136,172.247988,902.416903,94.95
1240, 15:14:04,69.115728,172.793205,903.264915,94.95
1241, 15:14:04,69.236506,173.318892,905.481534,94.95
1242, 15:14:04,69.278567,173.734375,905.761364,94.95
1243, 15:14:04,69.419823,174.296875,908.579545,94.95
1244, 15:14:04,69.469894,174.824455,909.435369,94.95
1245, 15:14:04,69.5247,175.191525,910.37642,94.95
1246, 15:14:04,69.369555,174.741714,908.805398,94.95
1247, 15:14:04,68.80453,172.130919,900.49858,94.95
1248, 15:14:04,68.354601,169.699219,893.138494,94.95
1249, 15:14:04,68.129182,168.20715,888.487216,94.95
1250, 15:14:04,68.077217,167.589607,887.341619,94.95
1251, 15:14:04,68.002565,167.114702,886.083097,94.95
1252, 15:14:04,67.875789,166.495739,884.048295,94.95
1253, 15:14:04,67.901002,166.471473,884.328835,94.95
1254, 15:14:04,67.976128,166.682173,885.183949,94.95
1255, 15:14:04,68.104719,167.073153,887.49858,94.95
1256, 15:14:04,68.088463,167.187737,887.140625,94.95
1257, 15:14:04,68.089252,167.226562,887.865057,94.95
1258, 15:14:04,68.119279,167.256984,887.604403,94.95
1259, 15:14:04,68.19989,167.591619,888.723011,94.95
1260, 15:14:05,68.284643,168.173532,890.109375,94.95
1261, 15:14:05,68.365885,168.540838,891.520597,94.95
1262, 15:14:05,68.521899,169.174124,893.81179,94.95
1263, 15:14:05,68.568497,169.5625,895.247159,94.95
1264, 15:14:05,68.66059,170.026752,895.81108,94.95
1265, 15:14:05,68.72968,170.361861,897.443892,94.95
1266, 15:14:05,68.774779,170.754261,897.954545,94.95
1267, 15:14:05,68.862926,171.238873,899.15483,94.95
1268, 15:14:05,68.940578,171.70715,899.893466,94.95
1269, 15:14:05,69.019058,172.206795,902.232244,94.95
1270, 15:14:05,69.050268,172.587831,903.208807,94.95
1271, 15:14:05,69.149661,173.225497,904.389915,94.95
1272, 15:14:05,69.283183,173.814039,906.318892,94.95
1273, 15:14:05,69.299085,174.132576,907.514205,94.95
1274, 15:14:05,69.056108,173.264441,903.65483,94.95
1275, 15:14:05,68.47818,170.525923,895.101562,94.95
1276, 15:14:05,68.043245,168.201705,887.625,94.95
1277, 15:14:05,67.835464,166.965199,884.271307,94.95
1278, 15:14:05,67.826349,166.461529,883.121449,94.95
1279, 15:14:05,67.731376,165.849905,882.201705,94.95
1280, 15:14:05,67.688171,165.531842,881.424006,94.95
1281, 15:14:05,67.701981,165.5567,881.490767,94.95
1282, 15:14:05,67.800229,165.957978,882.759233,94.95
1283, 15:14:05,67.863991,166.212713,883.716619,94.95
1284, 15:14:05,67.832741,166.192353,883.287642,94.95
1285, 15:14:05,67.882812,166.379025,884.37358,94.95
1286, 15:14:05,67.908617,166.52036,884.474432,94.95
1287, 15:14:05,68.03271,166.968868,886.676847,94.95
1288, 15:14:05,68.098406,167.386127,886.901989,94.95
1289, 15:14:05,68.249329,168.111151,889.851562,94.95
1290, 15:14:06,68.34517,168.535038,890.866477,94.95
1291, 15:14:06,68.402502,168.91205,892.159801,94.95
1292, 15:14:06,68.513573,169.399148,893.963068,94.95
1293, 15:14:06,68.549124,169.753906,894.864347,94.95
1294, 15:14:06,68.654435,170.258759,896.34517,94.95
1295, 15:14:06,68.712634,170.636009,897.520597,94.95
1296, 15:14:06,68.786458,171.112216,899.221591,94.95
1297, 15:14:06,68.87646,171.476918,900.361506,94.95
1298, 15:14:06,68.965002,172.048887,901.287642,94.95
1299, 15:14:06,69.057686,172.648911,903.18608,94.95
1300, 15:14:06,69.04648,172.907434,903.276989,94.95
1301, 15:14:06,68.7195,171.510772,897.899858,94.95
1302, 15:14:06,68.047546,168.450402,888.222301,94.95
1303, 15:14:06,67.629459,166.205611,881.34446,94.95
1304, 15:14:06,67.447088,164.849787,877.979403,94.95
1305, 15:14:06,67.382063,164.295336,877.090199,94.95
1306, 15:14:06,67.261719,163.573035,874.512074,94.95
1307, 15:14:06,67.149148,162.993371,873.036932,94.95
1308, 15:14:06,67.187816,163.013258,873.414773,94.95
1309, 15:14:06,67.269018,163.370502,874.302557,94.95
1310, 15:14:06,67.402699,163.924953,876.06392,94.95
1311, 15:14:06,67.411498,163.983546,876.648438,94.95
1312, 15:14:06,67.43967,164.131984,877.027699,94.95
1313, 15:14:06,67.468355,164.334991,877.899148,94.95
1314, 15:14:06,67.581992,164.799479,879.473011,94.95
1315, 15:14:06,67.690657,165.251894,880.829545,94.95
1316, 15:14:06,67.778527,165.729995,881.774858,94.95
1317, 15:14:06,67.913392,166.329664,884.850142,94.95
1318, 15:14:06,68.008957,166.810014,886.450994,94.95
1319, 15:14:06,68.059343,167.18608,887.201705,94.95
1320, 15:14:07,68.133404,167.622277,887.546165,94.95
1321, 15:14:07,68.271031,168.144531,890.085938,94.95
1322, 15:14:07,68.358823,168.664536,891.322443,94.95
1323, 15:14:07,68.407789,169.059541,892.286222,94.95
1324, 15:14:07,68.551176,169.699929,894.566051,94.95
1325, 15:14:07,68.597025,170.158973,895.598722,94.95
1326, 15:14:07,68.709083,170.754143,897.825994,94.95
1327, 15:14:07,68.812342,171.242898,899.198864,94.95
1328, 15:14:07,68.901002,171.734257,900.385653,94.95
1329, 15:14:07,68.981376,172.382102,903.477273,94.95
1330, 15:14:07,69.054688,172.921638,904.038352,94.95
1331, 15:14:07,68.971709,172.773556,902.683949,94.95
1332, 15:14:07,68.376381,170.354995,892.752131,94.95
1333, 15:14:07,67.824495,167.437027,885.164773,94.95
1334, 15:14:07,67.466185,165.476681,878.164062,94.95
1335, 15:14:07,67.338739,164.642164,877.085938,94.95
1336, 15:14:07,67.241043,164.078243,875.412642,94.95
1337, 15:14:07,67.103851,163.393466,873.539773,94.95
1338, 15:14:07,67.020163,162.841264,871.854403,94.95
1339, 15:14:07,67.112768,163.064157,873.112216,94.95
1340, 15:14:07,67.265704,163.67732,875.430398,94.95
1341, 15:14:07,67.340396,164.039181,876.539062,94.95
1342, 15:14:07,67.367266,164.295455,876.997159,94.95
1343, 15:14:07,67.429766,164.580492,878.360795,94.95
1344, 15:14:07,67.490254,164.86044,878.560369,94.95
1345, 15:14:07,67.642953,165.47526,880.567472,94.95
1346, 15:14:07,67.711529,166.067827,881.941051,94.95
1347, 15:14:07,67.879932,166.69188,884.617188,94.95
1348, 15:14:07,67.966146,167.299479,885.711648,94.95
1349, 15:14:07,68.071378,167.826349,887.87571,94.95
1350, 15:14:08,68.132142,168.274266,889.208097,95.2
1351, 15:14:08,68.244318,168.891098,890.866477,95.2
1352, 15:14:08,68.319129,169.432292,892.883523,95.2
1353, 15:14:08,68.419231,169.957031,893.387074,95.2
1354, 15:14:08,68.540878,170.69697,896.15625,95.2
1355, 15:14:08,68.608783,171.231652,897.597301,95.2
1356, 15:14:08,68.698272,171.822088,898.892756,95.2
1357, 15:14:08,68.781132,172.386955,900.196733,95.2
1358, 15:14:08,68.854561,172.948153,901.59233,95.2
1359, 15:14:08,68.968434,173.512311,904.292614,95.2
1360, 15:14:08,69.000473,174.017045,904.136364,95.2
1361, 15:14:08,69.126933,174.745384,906.560369,95.2
1362, 15:14:08,69.207347,175.278764,907.950994,95.2
1363, 15:14:08,69.093079,175.12062,906.635653,95.2
1364, 15:14:08,68.475734,172.835346,898.566051,95.2
1365, 15:14:08,68.061395,170.497633,891.207386,95.2
1366, 15:14:08,67.849116,168.999527,885.971591,95.2
1367, 15:14:08,67.788352,168.412405,885.892045,95.2
1368, 15:14:08,67.734138,168.115294,885.305398,95.2
1369, 15:14:08,67.641454,167.428149,883.338778,95.2
1370, 15:14:08,67.62934,167.351089,882.59233,95.2
1371, 15:14:08,67.691801,167.552675,884.290483,95.2
1372, 15:14:08,67.795533,168.056108,885.884943,95.2
1373, 15:14:08,67.809028,168.169981,885.866477,95.2
1374, 15:14:08,67.831282,168.263731,886.028409,95.2
1375, 15:14:08,67.815854,168.36849,886.222301,95.2
1376, 15:14:08,67.866832,168.712713,886.617188,95.2
1377, 15:14:08,67.946693,169.293679,889.696733,95.2
1378, 15:14:08,68.037405,169.662879,889.784091,95.2
1379, 15:14:08,68.14611,170.194957,891.774858,95.2
1380, 15:14:09,68.210306,170.663116,892.47017,95.2
1381, 15:14:09,68.275923,171.113281,893.117188,95.2
1382, 15:14:09,68.348761,171.470052,894.979403,95.2
1383, 15:14:09,68.393229,171.968513,896.350852,95.2
1384, 15:14:09,68.493253,172.406368,898.426847,95.2
1385, 15:14:09,68.53267,172.745265,898.934659,95.2
1386, 15:14:09,68.642164,173.333688,899.911222,95.2
1387, 15:14:09,68.681226,173.708925,901.980824,95.2
1388, 15:14:09,68.748737,174.186553,902.519886,95.2
1389, 15:14:09,68.791312,174.599313,903.970881,95.2
1390, 15:14:09,68.901476,175.124408,904.564631,95.2
1391, 15:14:09,68.985874,175.656013,906.651989,95.2
1392, 15:14:09,68.826981,175.139086,903.487926,95.2
1393, 15:14:09,68.287366,173.044389,896.831676,95.2
1394, 15:14:09,67.841304,170.734138,890.069602,95.2
1395, 15:14:09,67.636916,169.387074,886.191761,95.2
1396, 15:14:09,67.568537,168.723603,884.361506,95.2
1397, 15:14:09,67.533499,168.302675,883.614347,95.2
1398, 15:14:09,67.423532,167.649384,881.487216,95.2
1399, 15:14:09,67.454743,167.654001,881.889915,95.2
1400, 15:14:09,67.547546,167.906368,882.824574,95.2
1401, 15:14:09,67.584044,168.160748,883.62642,95.2
1402, 15:14:09,67.604601,168.182173,884.21804,95.2
1403, 15:14:09,67.593395,168.099313,884.286222,95.2
1404, 15:14:09,67.605705,168.188329,883.996449,95.2
1405, 15:14:09,67.609138,168.310843,884.046875,95.2
1406, 15:14:09,67.742858,168.827533,886.368608,95.2
1407, 15:14:09,67.823035,169.198272,887.578835,95.2
1408, 15:14:09,67.901476,169.621094,888.746449,95.2
1409, 15:14:09,67.900055,169.820431,888.959517,95.2
1410, 15:14:10,67.720644,169.461648,886.784091,95.225
1411, 15:14:10,67.663431,169.403646,886.899148,95.225
1412, 15:14:10,67.654711,169.55599,887.861506,95.225
1413, 15:14:10,67.81108,170.36553,890.340909,95.225
1414, 15:14:10,67.899779,170.839015,891.923295,95.225
1415, 15:14:10,68.047151,171.583215,893.754972,95.225
1416, 15:14:10,68.176965,172.292259,895.617188,95.225
1417, 15:14:10,68.240846,172.65767,896.730114,95.225
1418, 15:14:10,68.015073,171.858191,893.441761,95.225
1419, 15:14:10,67.496173,169.664181,885.854403,95.225
1420, 15:14:10,67.136364,167.582386,879.289773,95.225
1421, 15:14:10,66.960109,166.216501,875.71946,95.225
1422, 15:14:10,66.872238,165.51018,874.242898,95.225
1423, 15:14:10,66.777304,164.752367,871.892045,95.225
1424, 15:14:10,66.71508,164.209635,870.970881,95.225
1425, 15:14:10,66.751065,164.164654,871.433949,95.225
1426, 15:14:10,66.82485,164.447562,871.549006,95.225
1427, 15:14:10,66.867898,164.689867,872.855114,95.225
1428, 15:14:10,66.873067,164.669389,872.158381,95.225
1429, 15:14:10,66.873303,164.628433,872.793324,95.225
1430, 15:14:10,66.924992,164.853101,873.848722,95.225
1431, 15:14:10,67.016769,165.195668,875.247869,95.225
1432, 15:14:10,67.092724,165.638494,876.461648,95.225
1433, 15:14:10,67.150095,165.991951,877.954545,95.225
1434, 15:14:10,67.261048,166.539773,879.454545,95.225
1435, 15:14:10,67.296599,166.820668,880.290483,95.225
1436, 15:14:10,67.361111,167.213068,881.340909,95.225
1437, 15:14:10,67.397214,167.518821,882.897017,95.225
1438, 15:14:10,67.493056,167.97017,883.980114,95.225
1439, 15:14:10,67.570036,168.403764,886.183949,95.225
1440, 15:14:11,67.59884,168.728812,885.975142,95.2
1441, 15:14:11,67.674992,169.185961,888.019176,95.2
1442, 15:14:11,67.709478,169.501065,887.915483,95.2
1443, 15:14:11,67.83136,170.115767,890.62358,95.2
1444, 15:14:11,67.883838,170.398201,891.176136,95.2
1445, 15:14:11,67.945747,170.820194,892.418324,95.2
1446, 15:14:11,67.655303,169.676136,887.352273,95.2
1447, 15:14:11,67.042101,167.06617,878.709517,95.2
1448, 15:14:11,66.65846,164.651989,871.838068,95.2
1449, 15:14:11,66.39319,163.038471,866.864347,95.2
1450, 15:14:11,66.296125,162.253433,865.046165,95.2
1451, 15:14:11,66.125473,161.27983,862.360795,95.2
1452, 15:14:11,65.978969,160.55812,859.664062,95.2
1453, 15:14:11,65.976247,160.34304,860.481534,95.2
1454, 15:14:11,66.084478,160.742069,862.03196,95.2
1455, 15:14:11,66.154632,161.033499,863.138494,95.2
1456, 15:14:11,66.20277,161.247988,863.564631,95.2
1457, 15:14:11,66.221078,161.414654,864.371449,95.2
1458, 15:14:11,66.247041,161.545573,864.495028,95.2
1459, 15:14:11,66.318616,161.843632,865.394176,95.2
1460, 15:14:11,66.424874,162.340436,866.46875,95.2
1461, 15:14:11,66.544271,162.796165,868.788352,95.2
1462, 15:14:11,66.626973,163.28196,870.055398,95.2
1463, 15:14:11,66.729009,163.807292,872.144886,95.2
1464, 15:14:11,66.810488,164.292732,872.821733,95.2
1465, 15:14:11,66.84304,164.640862,873.887784,95.2
1466, 15:14:11,66.964094,165.157907,875.87358,95.2
1467, 15:14:11,67.025134,165.565933,877.227983,95.2
1468, 15:14:11,67.115017,166.180753,878.729403,95.2
1469, 15:14:11,67.195312,166.679688,880.339489,95.2
1470, 15:14:12,67.286892,167.273556,882.166903,95.2
1471, 15:14:12,67.375789,167.77036,884.534091,95.2
1472, 15:14:12,67.463581,168.238281,885.085938,95.2
1473, 15:14:12,67.548295,168.726799,887.392045,95.2
1474, 15:14:12,67.588621,169.049953,887.867898,95.2
1475, 15:14:12,67.704427,169.719342,889.151278,95.2
1476, 15:14:12,67.766611,170.137902,890.816051,95.2
1477, 15:14:12,67.857244,170.553267,891.487216,95.2
1478, 15:14:12,67.58937,169.844815,888.085938,95.2
1479, 15:14:12,67.020754,167.34446,879.68608,95.2
1480, 15:14:12,66.555437,164.920573,871.631392,95.2
1481, 15:14:12,66.34959,163.482955,867.946023,95.2
1482, 15:14:12,66.267795,162.728575,866.567472,95.2
1483, 15:14:12,66.107678,161.843868,863.634233,95.2
1484, 15:14:12,65.982876,161.180161,861.933239,95.2
1485, 15:14:12,65.99712,160.968632,861.700994,95.2
1486, 15:14:12,66.090436,161.304451,862.627841,95.2
1487, 15:14:12,66.226799,161.808712,865.920455,95.2
1488, 15:14:12,66.242858,161.945431,864.556108,95.2
1489, 15:14:12,66.266375,162.09742,865.547585,95.2
1490, 15:14:12,66.264323,162.175071,866.254972,95.2
1491, 15:14:12,66.364544,162.577533,867.800426,95.2
1492, 15:14:12,66.459241,162.982363,869.078835,95.2
1493, 15:14:12,66.569602,163.557292,870.977273,95.2
1494, 15:14:12,66.655737,164.084635,872.081676,95.2
1495, 15:14:12,66.756155,164.550189,873.815341,95.2
1496, 15:14:12,66.874014,165.014086,875.825994,95.2
1497, 15:14:12,66.865017,165.373461,876.564631,95.2
1498, 15:14:12,67.001854,165.795336,877.658381,95.2
1499, 15:14:12,67.073587,166.200876,878.929688,95.2
1500, 15:14:13,67.166272,166.739347,880.004261,95.225
1501, 15:14:13,67.260851,167.32848,882.183949,95.225
1502, 15:14:13,67.302596,167.649266,882.989347,95.225
1503, 15:14:13,67.393624,168.218277,885.048295,95.225
1504, 15:14:13,67.444444,168.640152,886.019886,95.225
1505, 15:14:13,67.532749,169.129025,887.538352,95.225
1506, 15:14:13,67.614465,169.640743,888.745028,95.225
1507, 15:14:13,67.716185,170.268348,891.351562,95.225
1508, 15:14:13,67.726168,170.366951,890.630682,95.225
1509, 15:14:13,67.330414,168.799953,884.705966,95.225
1510, 15:14:13,66.785551,166.309777,876.196733,95.225
1511, 15:14:13,66.453086,164.422704,870.806108,95.225
1512, 15:14:13,66.355035,163.404593,867.84233,95.225
1513, 15:14:13,66.280855,162.796638,866.475852,95.225
1514, 15:14:13,66.194523,162.160275,865.086648,95.225
1515, 15:14:13,66.180832,161.868726,864.982244,95.225
1516, 15:14:13,66.225103,162.034683,865.53196,95.225
1517, 15:14:13,66.356929,162.426373,867.146307,95.225
1518, 15:14:13,66.350063,162.546402,867.252841,95.225
1519, 15:14:13,66.366083,162.562737,867.603693,95.225
1520, 15:14:13,66.339568,162.563684,866.723011,95.225
1521, 15:14:13,66.386521,162.655777,868.045455,95.225
1522, 15:14:13,66.483073,163.015507,869.377131,95.225
1523, 15:14:13,66.553583,163.378551,870.606534,95.225
1524, 15:14:13,66.684975,163.950284,872.360795,95.225
1525, 15:14:13,66.735874,164.322206,873.072443,95.225
1526, 15:14:13,66.813644,164.827296,874.904119,95.225
1527, 15:14:13,66.929332,165.279948,876.571733,95.225
1528, 15:14:13,66.968987,165.754025,877.541193,95.225
1529, 15:14:13,67.028725,166.09375,877.769886,95.225
1530, 15:14:14,67.098288,166.38151,879.377131,95.225
1531, 15:14:14,67.217251,166.914062,882.055398,95.225
1532, 15:14:14,67.292219,167.3634,882.910511,95.225
1533, 15:14:14,67.41639,168.046046,885.321733,95.225
1534, 15:14:14,67.466461,168.434896,885.734375,95.225
1535, 15:14:14,67.364347,168.041903,884.177557,95.225
1536, 15:14:14,66.882497,165.867188,876.31392,95.225
1537, 15:14:14,66.382576,163.405303,869.534091,95.225
1538, 15:14:14,66.201192,161.939276,864.93679,95.225
1539, 15:14:14,66.06392,161.103693,863.511364,95.225
1540, 15:14:14,66.003946,160.598011,861.125,95.225
1541, 15:14:14,65.930674,160.019295,860.737926,95.225
1542, 15:14:14,65.911064,159.85535,860.59233,95.225
1543, 15:14:14,66.022175,160.174479,862.018466,95.225
1544, 15:14:14,66.110401,160.540956,863.387784,95.225
1545, 15:14:14,66.14974,160.680279,863.763494,95.225
1546, 15:14:14,66.123422,160.696496,863.443182,95.225
1547, 15:14:14,66.183594,160.897372,864.458097,95.225
1548, 15:14:14,66.275568,161.185133,865.454545,95.225
1549, 15:14:14,66.391967,161.70857,867.37358,95.225
1550, 15:14:14,66.442353,162.248935,867.800426,95.225
1551, 15:14:14,66.591974,162.736624,870.743608,95.225
1552, 15:14:14,66.733744,163.294034,872.269886,95.225
1553, 15:14:14,66.785827,163.648201,873.159091,95.225
1554, 15:14:14,66.857284,164.063802,874.351562,95.225
1555, 15:14:14,66.908894,164.408499,875.547585,95.225
1556, 15:14:14,67.028251,164.92803,877.173295,95.225
1557, 15:14:14,67.124132,165.418324,879.254261,95.225
1558, 15:14:14,67.216422,165.852865,880.472301,95.225
1559, 15:14:14,67.28267,166.375473,881.974432,95.225
1560, 15:14:15,67.418482,166.83215,883.81392,95.2
1561, 15:14:15,67.493845,167.402936,885.431818,95.2
1562, 15:14:15,67.502999,167.694602,885.588068,95.2
1563, 15:14:15,67.219263,166.464607,881.122869,95.2
1564, 15:14:15,66.598366,163.523793,871.62571,95.2
1565, 15:14:15,66.161498,161.205137,864.87571,95.2
1566, 15:14:15,65.964055,159.738755,860.929688,95.2
1567, 15:14:15,65.827139,158.990412,858.791903,95.2
1568, 15:14:15,65.700994,158.227983,857.021307,95.2
1569, 15:14:15,65.59959,157.505208,855.866477,95.2
1570, 15:14:15,65.617188,157.486032,855.725852,95.2
1571, 15:14:15,65.726957,157.877841,857.505682,95.2
1572, 15:14:15,65.870502,158.421165,858.72017,95.2
1573, 15:14:15,65.88301,158.451113,859.715199,95.2
1574, 15:14:15,65.891769,158.556463,859.384233,95.2
1575, 15:14:15,65.971236,158.848366,861.411222,95.2
1576, 15:14:15,66.045099,159.226207,861.666903,95.2
1577, 15:14:15,66.181621,159.811908,863.897017,95.2
1578, 15:14:15,66.30378,160.324692,865.149858,95.2
1579, 15:14:15,66.463384,160.940814,868.167614,95.2
1580, 15:14:15,66.532315,161.332741,869.064631,95.2
1581, 15:14:15,66.626144,161.90258,870.409801,95.2
1582, 15:14:15,66.743766,162.312737,871.990057,95.2
1583, 15:14:15,66.826823,162.706795,873.425426,95.2
1584, 15:14:15,66.973406,163.296165,874.913352,95.2
1585, 15:14:15,67.049676,163.678385,876.257812,95.2
1586, 15:14:15,67.201034,164.309067,878.178267,95.2
1587, 15:14:15,67.325836,164.81321,880.572443,95.2
1588, 15:14:15,67.436869,165.455492,882.3125,95.2
1589, 15:14:15,67.550623,165.904238,883.871449,95.2
1590, 15:14:16,67.651042,166.400095,884.795455,95.2
1591, 15:14:16,67.744831,166.982126,886.637074,95.2
1592, 15:14:16,67.812618,167.41134,887.416903,95.2
1593, 15:14:16,67.992148,168.147372,891.424006,95.2
1594, 15:14:16,68.030855,168.448627,890.927557,95.2
1595, 15:14:16,67.749171,167.362571,887.183949,95.2
1596, 15:14:16,67.100182,164.364465,876.362926,95.2
1597, 15:14:16,66.592093,161.766809,869.853693,95.2
1598, 15:14:16,66.388573,160.302557,865.428977,95.2
1599, 15:14:16,66.254972,159.604877,863.93892,95.2
1600, 15:14:16,66.152699,158.909801,861.703125,95.2
1601, 15:14:16,66.030145,158.112216,860.590909,95.2
1602, 15:14:16,66.060724,158.062382,860.789062,95.2
1603, 15:14:16,66.144216,158.399976,862.274858,95.2
1604, 15:14:16,66.303859,159.014796,863.966619,95.2
1605, 15:14:16,66.348564,159.320312,864.526989,95.2
1606, 15:14:16,66.374053,159.423769,865.340909,95.2
1607, 15:14:16,66.457031,159.652344,866.959517,95.2
1608, 15:14:16,66.52616,160.105469,867.075994,95.2
1609, 15:14:16,66.692393,160.686553,870.136364,95.2
1610, 15:14:16,66.797506,161.13589,870.599432,95.2
1611, 15:14:16,66.953007,161.915838,873.608665,95.2
1612, 15:14:16,67.044389,162.440459,874.790483,95.2
1613, 15:14:16,67.183515,163.023556,877.24929,95.2
1614, 15:14:16,67.298572,163.524976,877.942472,95.2
1615, 15:14:16,67.414931,163.987689,879.724432,95.2
1616, 15:14:16,67.535038,164.495739,881.480114,95.2
1617, 15:14:16,67.648872,165.069721,882.827415,95.2
1618, 15:14:16,67.81613,165.770833,885.71875,95.2
1619, 15:14:16,67.936553,166.278409,887.676136,95.2
1620, 15:14:17,68.047072,166.885535,889.145597,95.225
1621, 15:14:17,68.190183,167.571496,891.571023,95.225
1622, 15:14:17,68.273161,167.909446,893.149858,95.225
1623, 15:14:17,68.429293,168.651042,894.926136,95.225
1624, 15:14:17,68.560133,169.205492,896.446023,95.225
1625, 15:14:17,68.500473,169.226326,896.696023,95.225
1626, 15:14:17,68.00872,167.137429,888.472301,95.225
1627, 15:14:17,67.38956,164.208925,879.279119,95.225
1628, 15:14:17,67.078677,162.475142,874.203125,95.225
1629, 15:14:17,66.96291,161.513258,871.974432,95.225
1630, 15:14:17,66.918521,161.198272,871.064631,95.225
1631, 15:14:17,66.836135,160.719105,869.502131,95.225
1632, 15:14:17,66.875237,160.702415,870.870739,95.225
1633, 15:14:17,67.025174,161.216619,873.018466,95.225
1634, 15:14:17,67.096157,161.682884,874.043324,95.225
1635, 15:14:17,67.216698,161.994792,875.056818,95.225
1636, 15:14:17,67.192787,161.995502,874.46733,95.225
1637, 15:14:17,67.236348,162.160275,874.896307,95.225
1638, 15:14:17,67.339568,162.640388,877.666193,95.225
1639, 15:14:17,67.488045,163.211293,879.455256,95.225
1640, 15:14:17,67.646307,163.905777,881.431818,95.225
1641, 15:14:17,67.761955,164.559067,883.632812,95.225
1642, 15:14:17,67.919113,165.222301,885.632102,95.225
1643, 15:14:17,67.987295,165.593987,885.975852,95.225
1644, 15:14:17,68.137784,166.193655,888.724432,95.225
1645, 15:14:17,68.222459,166.557528,889.56108,95.225
1646, 15:14:17,68.34955,167.114938,891.854403,95.225
1647, 15:14:17,68.444957,167.591501,893.029119,95.225
1648, 15:14:17,68.596394,168.237571,894.786222,95.225
1649, 15:14:17,68.740333,168.818063,897.345881,95.225
1650, 15:14:18,68.831637,169.422467,898.588778,95.475
1651, 15:14:18,68.820747,169.392164,898.733665,95.475
1652, 15:14:18,68.29577,167.332386,890.09375,95.475
1653, 15:14:18,67.757457,164.659683,882.128551,95.475
1654, 15:14:18,67.428188,162.816761,877.15625,95.475
1655, 15:14:18,67.311119,162.135535,875.506392,95.475
1656, 15:14:18,67.31175,161.847656,874.847301,95.475
1657, 15:14:18,67.284209,161.611151,875.320312,95.475
1658, 15:14:18,67.330611,161.63956,875.314631,95.475
1659, 15:14:18,67.456045,161.983665,876.615057,95.475
1660, 15:14:18,67.577375,162.632221,878.486506,95.475
1661, 15:14:18,67.613755,162.88009,880.345881,95.475
1662, 15:14:18,67.649937,163.025095,879.892045,95.475
1663, 15:14:18,67.700718,163.208688,880.939631,95.475
1664, 15:14:18,67.808239,163.655303,881.713068,95.475
1665, 15:14:18,67.963108,164.320668,884.463778,95.475
1666, 15:14:18,68.083688,164.906842,885.870028,95.475
1667, 15:14:18,68.221473,165.70419,889.350142,95.475
1668, 15:14:18,68.326823,166.185014,889.956676,95.475
1669, 15:14:18,68.46145,166.773082,892.192472,95.475
1670, 15:14:18,68.529751,167.246922,892.805398,95.475
1671, 15:14:18,68.616162,167.690341,894.022727,95.475
1672, 15:14:18,68.757181,168.269176,896.134943,95.475
1673, 15:14:18,68.882418,168.778409,897.991477,95.475
1674, 15:14:18,68.969973,169.323272,899.064631,95.475
1675, 15:14:18,69.092882,169.816525,901.487216,95.475
1676, 15:14:18,69.218158,170.417732,903.290483,95.475
1677, 15:14:18,68.913155,169.254616,897.902699,95.475
1678, 15:14:18,68.330808,166.557765,889.0,95.475
1679, 15:14:18,67.746449,163.706676,880.740057,95.475
1680, 15:14:19,67.50363,162.21875,876.991477,95.475
1681, 15:14:19,67.437973,161.579545,875.213068,95.475
1682, 15:14:19,67.32264,161.057884,873.770597,95.475
1683, 15:14:19,67.246765,160.557055,873.069602,95.475
1684, 15:14:19,67.240491,160.467685,872.970881,95.475
1685, 15:14:19,67.387705,161.065104,875.262784,95.475
1686, 15:14:19,67.52107,161.69768,877.12642,95.475
1687, 15:14:19,67.603772,162.074574,878.086648,95.475
1688, 15:14:19,67.646031,162.241596,878.608665,95.475
1689, 15:14:19,67.679135,162.413352,879.053977,95.475
1690, 15:14:19,67.823074,163.006155,881.133523,95.475
1691, 15:14:19,67.959675,163.638968,883.37358,95.475
1692, 15:14:19,68.114899,164.411932,885.426136,95.475
1693, 15:14:19,68.2689,165.07848,888.101562,95.475
1694, 15:14:19,68.347104,165.679569,888.739347,95.475
1695, 15:14:19,68.497317,166.356534,892.034091,95.475
1696, 15:14:19,68.563486,166.708925,891.932528,95.475
1697, 15:14:19,68.709478,167.352391,893.847301,95.475
1698, 15:14:19,68.780303,167.758049,895.227273,95.475
1699, 15:14:19,68.894689,168.362571,897.073153,95.475
1700, 15:14:19,68.999724,168.904474,898.810369,95.475
1701, 15:14:19,69.090791,169.404948,899.93821,95.475
1702, 15:14:19,69.21295,169.918205,901.577415,95.475
1703, 15:14:19,69.293482,170.359138,903.100852,95.475
1704, 15:14:19,69.429964,171.055516,905.046165,95.475
1705, 15:14:19,69.480035,171.550426,905.84517,95.475
1706, 15:14:19,69.377328,171.201586,905.450994,95.475
1707, 15:14:19,68.775687,168.482363,895.664062,95.475
1708, 15:14:19,68.066091,165.13151,884.252131,95.475
1709, 15:14:19,67.696141,163.144768,879.308949,95.475
1710, 15:14:20,67.519926,162.127959,876.145597,95.475
1711, 15:14:20,67.447917,161.523201,874.971591,95.475
1712, 15:14:20,67.298335,160.797467,872.580256,95.475
1713, 15:14:20,67.256234,160.606297,873.359375,95.475
1714, 15:14:20,67.397964,161.043797,874.785511,95.475
1715, 15:14:20,67.537445,161.701349,876.611506,95.475
1716, 15:14:20,67.638731,162.166667,879.068182,95.475
1717, 15:14:20,67.676057,162.393229,879.629261,95.475
1718, 15:14:20,67.734848,162.684186,880.034091,95.475
1719, 15:14:20,67.770044,162.988163,880.136364,95.475
1720, 15:14:20,67.938723,163.717211,883.161222,95.475
1721, 15:14:20,68.043955,164.314631,885.046875,95.475
1722, 15:14:20,68.214725,165.026278,887.632102,95.475
1723, 15:14:20,68.352115,165.663352,889.3125,95.475
1724, 15:14:20,68.413116,166.133286,889.59517,95.475
1725, 15:14:20,68.547625,166.770241,891.831676,95.475
1726, 15:14:20,68.617188,167.16643,892.867898,95.475
1727, 15:14:20,68.757378,167.852628,895.635653,95.475
1728, 15:14:20,68.818024,168.242898,895.977273,95.475
1729, 15:14:20,68.958136,168.966738,898.81179,95.475
1730, 15:14:20,69.083886,169.504498,900.401989,95.475
1731, 15:14:20,69.184501,169.994792,901.275568,95.475
1732, 15:14:20,69.29794,170.53776,902.93679,95.475
1733, 15:14:20,69.373146,171.012429,904.716619,95.475
1734, 15:14:20,69.492503,171.641335,906.322443,95.475
1735, 15:14:20,69.557923,172.12358,908.0625,95.475
1736, 15:14:20,69.651712,172.718868,908.924006,95.475
1737, 15:14:20,69.400805,171.64465,904.50142,95.475
1738, 15:14:20,68.688013,168.59955,894.600142,95.475
1739, 15:14:20,68.061356,165.597893,885.772017,95.475
1740, 15:14:21,67.813723,164.070431,881.12429,95.475
1741, 15:14:21,67.726602,163.534446,880.084517,95.475
1742, 15:14:21,67.647135,162.992069,878.549006,95.475
1743, 15:14:21,67.604285,162.751776,878.360085,95.475
1744, 15:14:21,67.642677,162.79214,879.105114,95.475
1745, 15:14:21,67.805082,163.437973,881.565341,95.475
1746, 15:14:21,67.936553,163.994792,883.713068,95.475
1747, 15:14:21,67.968079,164.165601,883.527699,95.475
1748, 15:14:21,67.975103,164.303622,883.662642,95.475
1749, 15:14:21,68.010062,164.539181,884.834517,95.475
1750, 15:14:21,68.141138,165.133168,886.210938,95.475
1751, 15:14:21,68.245896,165.59233,888.255682,95.475
1752, 15:14:21,68.395991,166.316288,890.392045,95.475
1753, 15:14:21,68.522846,166.966738,892.851562,95.475
1754, 15:14:21,68.611466,167.514323,893.662642,95.475
1755, 15:14:21,68.737571,168.073035,895.540483,95.475
1756, 15:14:21,68.818813,168.545928,896.159091,95.475
1757, 15:14:21,68.928741,169.037642,898.288352,95.475
1758, 15:14:21,69.00071,169.398438,899.43892,95.475
1759, 15:14:21,69.133207,169.990057,901.238636,95.475
1760, 15:14:21,69.181503,170.290246,901.295455,95.475
1761, 15:14:21,69.326902,171.100497,904.404119,95.475
1762, 15:14:21,69.458807,171.680398,906.375,95.475
1763, 15:14:21,69.439749,171.768111,905.977983,95.475
1764, 15:14:21,68.936829,169.772135,898.675426,95.475
1765, 15:14:21,68.229403,166.609138,888.441761,95.475
1766, 15:14:21,67.790759,164.361861,881.34446,95.475
1767, 15:14:21,67.606771,163.309422,879.109375,95.475
1768, 15:14:21,67.589291,163.10026,878.979403,95.475
1769, 15:14:21,67.524858,162.772491,878.09517,95.475
1770, 15:14:22,67.551807,162.777107,878.142756,95.45
1771, 15:14:22,67.733586,163.416667,881.034091,95.45
1772, 15:14:22,67.805358,163.876302,881.510653,95.45
1773, 15:14:22,67.89753,164.242779,883.425426,95.45
1774, 15:14:22,67.883641,164.28776,882.703835,95.45
1775, 15:14:22,67.923651,164.481652,883.861506,95.45
1776, 15:14:22,68.013336,164.904119,885.299716,95.45
1777, 15:14:22,68.146307,165.476326,887.332386,95.45
1778, 15:14:22,68.311395,166.236269,889.448864,95.45
1779, 15:14:22,68.424085,166.889678,891.051136,95.45
1780, 15:14:22,68.547704,167.453717,892.932528,95.45
1781, 15:14:22,68.662839,167.991359,894.74929,95.45
1782, 15:14:22,68.782355,168.513258,895.789773,95.45
1783, 15:14:22,68.85898,168.959517,897.731534,95.45
1784, 15:14:22,68.921836,169.39098,898.772017,95.45
1785, 15:14:22,69.046559,169.910511,900.28125,95.45
1786, 15:14:22,69.124487,170.405185,901.507812,95.45
1787, 15:14:22,69.259943,171.008049,904.036932,95.45
1788, 15:14:22,69.338739,171.412524,904.68821,95.45
1789, 15:14:22,69.074061,170.507694,901.31321,95.45
1790, 15:14:22,68.384312,167.504261,890.511364,95.45
1791, 15:14:22,67.682252,164.205848,879.772017,95.45
1792, 15:14:22,67.345368,162.479759,875.102983,95.45
1793, 15:14:22,67.209478,161.528527,873.128551,95.45
1794, 15:14:22,67.09959,160.942235,871.482955,95.45
1795, 15:14:22,66.983586,160.295928,869.880682,95.45
1796, 15:14:22,66.979759,160.244673,869.59304,95.45
1797, 15:14:22,67.134351,160.817827,871.895597,95.45
1798, 15:14:22,67.219381,161.458333,873.136364,95.45
1799, 15:14:22,67.290404,161.772254,874.53125,95.45
1800, 15:14:23,67.306305,161.837003,874.379972,95.45
1801, 15:14:23,67.375237,162.0509,875.080966,95.45
1802, 15:14:23,67.437579,162.3866,876.305398,95.45
1803, 15:14:23,67.567195,163.042495,878.666903,95.45
1804, 15:14:23,67.671559,163.592803,879.488636,95.45
1805, 15:14:23,67.836174,164.316761,883.082386,95.45
1806, 15:14:23,67.929175,164.857126,883.943892,95.45
1807, 15:14:23,67.973958,165.156723,884.784091,95.45
1808, 15:14:23,68.099313,165.738281,886.597301,95.45
1809, 15:14:23,68.143821,166.023319,887.392756,95.45
1810, 15:14:23,68.27178,166.629735,889.534091,95.45
1811, 15:14:23,68.352075,167.101207,891.007812,95.45
1812, 15:14:23,68.465278,167.684186,892.241477,95.45
1813, 15:14:23,68.578993,168.218513,894.552557,95.45
1814, 15:14:23,68.685133,168.711174,895.997159,95.45
1815, 15:14:23,68.749882,169.189986,897.628551,95.45
1816, 15:14:23,68.796323,169.526278,897.430398,95.45
1817, 15:14:23,68.947798,170.199929,899.997869,95.45
1818, 15:14:23,69.028961,170.617661,901.40483,95.45
1819, 15:14:23,68.937224,170.325402,899.872869,95.45
1820, 15:14:23,68.16639,167.293205,888.59446,95.45
1821, 15:14:23,67.380879,163.607599,876.71946,95.45
1822, 15:14:23,66.889086,161.140743,868.943892,95.45
1823, 15:14:23,66.663628,159.943063,866.527699,95.45
1824, 15:14:23,66.532789,159.196851,864.036222,95.45
1825, 15:14:23,66.338068,158.229167,861.383523,95.45
1826, 15:14:23,66.248461,157.809304,860.216619,95.45
1827, 15:14:23,66.295533,158.014441,861.291193,95.45
1828, 15:14:23,66.484493,158.687855,864.18679,95.45
1829, 15:14:23,66.532197,159.172822,864.815341,95.45
1830, 15:14:24,66.572049,159.310843,865.765625,95.45
1831, 15:14:24,66.615649,159.45206,866.658381,95.45
1832, 15:14:24,66.65767,159.693182,866.238636,95.45
1833, 15:14:24,66.801728,160.313329,869.368608,95.45
1834, 15:14:24,66.887863,160.78196,870.106534,95.45
1835, 15:14:24,67.040049,161.554332,872.647017,95.45
1836, 15:14:24,67.186001,162.1134,874.356534,95.45
1837, 15:14:24,67.243647,162.551965,875.277699,95.45
1838, 15:14:24,67.373856,163.182173,876.74929,95.45
1839, 15:14:24,67.412208,163.543916,878.010653,95.45
1840, 15:14:24,67.580966,164.255682,880.568182,95.45
1841, 15:14:24,67.64023,164.669744,881.43608,95.45
1842, 15:14:24,67.762863,165.347301,882.995739,95.45
1843, 15:14:24,67.883207,165.90625,884.497159,95.45
1844, 15:14:24,68.012981,166.48544,887.088778,95.45
1845, 15:14:24,68.141888,167.062027,889.508523,95.45
1846, 15:14:24,68.215317,167.498224,890.611506,95.45
1847, 15:14:24,68.313999,168.073627,891.774148,95.45
1848, 15:14:24,68.394571,168.584754,892.889205,95.45
1849, 15:14:24,68.489228,169.160393,895.229403,95.45
1850, 15:14:24,68.576744,169.599077,895.926847,95.45
1851, 15:14:24,68.691525,170.376184,898.490057,95.45
1852, 15:14:24,68.520912,169.841146,895.663352,95.45
1853, 15:14:24,67.809935,166.899029,885.183949,95.45
1854, 15:14:24,67.081282,163.399621,874.607955,95.45
1855, 15:14:24,66.633089,161.109967,867.242188,95.45
1856, 15:14:24,66.472656,160.299598,865.37429,95.45
1857, 15:14:24,66.394571,159.680398,863.71875,95.45
1858, 15:14:24,66.287839,159.149503,862.774858,95.45
1859, 15:14:24,66.261955,158.854522,862.240767,95.45
1860, 15:14:25,66.34663,159.200876,863.088778,95.45
1861, 15:14:25,66.489031,159.785748,866.447443,95.45
1862, 15:14:25,66.534959,160.025331,866.544034,95.45
1863, 15:14:25,66.589331,160.267045,867.559659,95.45
1864, 15:14:25,66.586687,160.36044,867.384233,95.45
1865, 15:14:25,66.697562,160.783026,869.286222,95.45
1866, 15:14:25,66.767124,161.233665,870.049716,95.45
1867, 15:14:25,66.943774,161.962476,872.888494,95.45
1868, 15:14:25,67.057449,162.606061,875.099432,95.45
1869, 15:14:25,67.136285,163.066051,875.694602,95.45
1870, 15:14:25,67.265743,163.727628,877.053267,95.45
1871, 15:14:25,67.339646,164.089962,878.181818,95.45
1872, 15:14:25,67.470289,164.682173,880.016335,95.45
1873, 15:14:25,67.552912,165.137429,881.645597,95.45
1874, 15:14:25,67.661143,165.70786,882.980114,95.45
1875, 15:14:25,67.759746,166.156605,885.175426,95.45
1876, 15:14:25,67.872633,166.757102,886.630682,95.45
1877, 15:14:25,67.976326,167.223485,888.321023,95.45
1878, 15:14:25,68.040009,167.637547,888.99858,95.45
1879, 15:14:25,68.171875,168.433712,892.272727,95.45
1880, 15:14:25,68.234691,168.904356,893.784091,95.45
1881, 15:14:25,68.306345,169.314394,894.738636,95.45
1882, 15:14:25,67.880208,167.741477,887.579545,95.45
1883, 15:14:25,67.165443,164.556937,877.264915,95.45
1884, 15:14:25,66.621883,161.930043,868.892756,95.45
1885, 15:14:25,66.40337,160.668442,865.516335,95.45
1886, 15:14:25,66.3692,160.256747,865.301847,95.45
1887, 15:14:25,66.281645,159.787169,863.788352,95.45
1888, 15:14:25,66.270044,159.605587,863.559659,95.45
1889, 15:14:25,66.327888,159.772017,864.737216,95.45
1890, 15:14:26,66.47893,160.391809,866.919034,95.45
1891, 15:14:26,66.498461,160.639796,866.56321,95.45
1892, 15:14:26,66.511995,160.705966,866.974432,95.45
1893, 15:14:26,66.52545,160.78705,868.381392,95.45
1894, 15:14:26,66.581676,161.033854,868.538352,95.45
1895, 15:14:26,66.699495,161.487216,869.974432,95.45
1896, 15:14:26,66.83795,162.081558,871.702415,95.45
1897, 15:14:26,66.99783,162.750592,874.15696,95.45
1898, 15:14:26,67.066051,163.188684,874.924716,95.45
1899, 15:14:26,67.207071,163.8125,877.53125,95.45
1900, 15:14:26,67.295533,164.246449,879.197443,95.45
1901, 15:14:26,67.371291,164.66785,879.992898,95.45
1902, 15:14:26,67.491438,165.182647,881.911222,95.45
1903, 15:14:26,67.534051,165.55812,882.831676,95.45
1904, 15:14:26,67.664457,166.116477,884.8125,95.45
1905, 15:14:26,67.732678,166.622751,886.105824,95.45
1906, 15:14:26,67.887626,167.318182,888.329545,95.45
1907, 15:14:26,67.959044,167.696259,889.691761,95.45
1908, 15:14:26,67.659801,166.622396,884.802557,95.45
1909, 15:14:26,66.954033,163.639086,874.354403,95.45
1910, 15:14:26,66.352746,160.769886,865.463068,95.45
1911, 15:14:26,66.085425,159.178622,862.171165,95.45
1912, 15:14:26,65.972696,158.551136,858.752841,95.45
1913, 15:14:26,65.888139,157.989228,859.620028,95.45
1914, 15:14:26,65.827612,157.551965,857.806108,95.45
1915, 15:14:26,65.902896,157.672704,858.649858,95.45
1916, 15:14:26,66.05236,158.322798,861.041903,95.45
1917, 15:14:26,66.116438,158.583215,861.919744,95.45
1918, 15:14:26,66.141848,158.80812,862.257812,95.45
1919, 15:14:26,66.117188,158.839725,862.083807,95.45
1920, 15:14:27,66.184265,159.002131,862.487216,95.45
1921, 15:14:27,66.27182,159.436671,864.287642,95.45
1922, 15:14:27,66.378235,160.004972,865.211648,95.45
1923, 15:14:27,66.532749,160.627604,868.328125,95.45
1924, 15:14:27,66.595052,161.02616,868.830256,95.45
1925, 15:14:27,66.734967,161.609257,870.871449,95.45
1926, 15:14:27,66.789102,162.004143,871.394176,95.45
1927, 15:14:27,66.925229,162.600497,873.989347,95.45
1928, 15:14:27,66.973879,162.855824,874.25142,95.45
1929, 15:14:27,67.124211,163.401989,876.855114,95.45
1930, 15:14:27,67.180003,163.808949,877.475852,95.45
1931, 15:14:27,67.2994,164.348485,879.428977,95.45
1932, 15:14:27,67.386127,164.785275,880.174716,95.45
1933, 15:14:27,67.456203,165.247869,881.728693,95.45
1934, 15:14:27,67.596551,165.960109,883.49929,95.45
1935, 15:14:27,67.640309,166.125947,884.423295,95.45
1936, 15:14:27,67.138218,164.314749,877.456676,95.45
1937, 15:14:27,66.317629,160.731297,865.546875,95.45
1938, 15:14:27,65.789378,158.081203,857.416193,95.45
1939, 15:14:27,65.55232,156.691525,853.947443,95.45
1940, 15:14:27,65.452178,155.96733,852.366477,95.45
1941, 15:14:27,65.330414,155.280066,850.669034,95.45
1942, 15:14:27,65.175032,154.515625,847.84375,95.45
1943, 15:14:27,65.236229,154.626302,849.888494,95.45
1944, 15:14:27,65.401673,155.269886,852.142045,95.45
1945, 15:14:27,65.508168,155.758404,853.948153,95.45
1946, 15:14:27,65.529908,155.955729,853.541193,95.45
1947, 15:14:27,65.563881,156.122514,854.953835,95.45
1948, 15:14:27,65.622238,156.360085,854.981534,95.45
1949, 15:14:27,65.73327,156.817235,857.127841,95.45
1950, 15:14:28,65.874921,157.398438,859.450284,95.475
1951, 15:14:28,65.941919,157.862216,860.181818,95.475
1952, 15:14:28,66.12642,158.634943,862.639205,95.475
1953, 15:14:28,66.186474,159.031487,863.708807,95.475
1954, 15:14:28,66.291667,159.589015,865.443182,95.475
1955, 15:14:28,66.368056,159.945076,866.349432,95.475
1956, 15:14:28,66.463581,160.443774,868.253551,95.475
1957, 15:14:28,66.597143,161.024384,869.458807,95.475
1958, 15:14:28,66.697877,161.474313,870.314631,95.475
1959, 15:14:28,66.816288,162.14678,873.178977,95.475
1960, 15:14:28,66.876342,162.50071,873.353693,95.475
1961, 15:14:28,67.023832,163.112689,875.457386,95.475
1962, 15:14:28,67.14678,163.714489,877.536932,95.475
1963, 15:14:28,67.268979,164.296046,879.350142,95.475
1964, 15:14:28,67.340751,164.687973,880.536932,95.475
1965, 15:14:28,67.468316,165.280421,882.139915,95.475
1966, 15:14:28,67.601799,165.880208,884.292614,95.475
1967, 15:14:28,67.555043,165.916075,883.553267,95.475
1968, 15:14:28,66.995305,163.665838,875.316051,95.475
1969, 15:14:28,66.152344,160.002959,864.051847,95.475
1970, 15:14:28,65.638179,157.398911,856.080966,95.475
1971, 15:14:28,65.432528,156.15696,852.680398,95.475
1972, 15:14:28,65.33578,155.547585,851.021307,95.475
1973, 15:14:28,65.228259,154.85902,848.847301,95.475
1974, 15:14:28,65.140152,154.402936,847.852273,95.475
1975, 15:14:28,65.198785,154.544744,849.240057,95.475
1976, 15:14:28,65.376184,155.201468,851.81392,95.475
1977, 15:14:28,65.535077,155.799361,854.912642,95.475
1978, 15:14:28,65.565025,155.946023,853.940341,95.475
1979, 15:14:28,65.569957,156.082978,854.790483,95.475
1980, 15:14:29,65.657118,156.464725,855.785511,95.475
1981, 15:14:29,65.771701,156.896544,857.805398,95.475
1982, 15:14:29,65.912642,157.590672,859.575284,95.475
1983, 15:14:29,66.026318,158.105469,860.709517,95.475
1984, 15:14:29,66.153567,158.82197,862.928977,95.475
1985, 15:14:29,66.28196,159.373816,865.049716,95.475
1986, 15:14:29,66.383444,159.819366,865.90767,95.475
1987, 15:14:29,66.511206,160.440814,868.139205,95.475
1988, 15:14:29,66.584872,160.830848,868.78054,95.475
1989, 15:14:29,66.709951,161.404474,871.710938,95.475
1990, 15:14:29,66.791193,161.876894,872.318182,95.475
1991, 15:14:29,66.944444,162.520833,874.829545,95.475
1992, 15:14:29,67.046165,163.033381,875.697443,95.475
1993, 15:14:29,67.155185,163.488755,877.068892,95.475
1994, 15:14:29,67.302754,164.139323,879.080256,95.475
1995, 15:14:29,67.403449,164.705137,881.415483,95.475
1996, 15:14:29,67.533815,165.23544,883.310369,95.475
1997, 15:14:29,67.284407,164.440814,879.321023,95.475
1998, 15:14:29,66.58645,161.520241,869.161222,95.475
1999, 15:14:29,65.927991,158.476681,860.06179,95.475
2000, 15:14:29,65.598801,156.786458,854.127841,95.475
2001, 15:14:29,65.54798,156.215909,853.392045,95.475
2002, 15:14:29,65.502801,155.886245,853.68679,95.475
2003, 15:14:29,65.494713,155.674953,853.526989,95.475
2004, 15:14:29,65.562303,155.819957,853.618608,95.475
2005, 15:14:29,65.703914,156.375473,856.525568,95.475
2006, 15:14:29,65.856258,157.046993,857.739347,95.475
2007, 15:14:29,65.864189,157.145123,858.617898,95.475
2008, 15:14:29,65.87646,157.226918,858.026278,95.475
2009, 15:14:29,65.879182,157.365294,858.674716,95.475
2010, 15:14:30,66.011127,157.848722,861.387784,95.475
2011, 15:14:30,66.192629,158.50071,863.370739,95.475
2012, 15:14:30,66.303385,159.092448,864.120028,95.475
2013, 15:14:30,66.481771,159.822206,867.549716,95.475
2014, 15:14:30,66.57414,160.287287,868.175426,95.475
2015, 15:14:30,66.650292,160.86849,869.352983,95.475
2016, 15:14:30,66.755011,161.252249,870.729403,95.475
2017, 15:14:30,66.853378,161.693182,871.84375,95.475
2018, 15:14:30,66.917495,162.065933,873.387074,95.475
2019, 15:14:30,67.022806,162.554214,875.34517,95.475
2020, 15:14:30,67.155579,163.087003,877.166903,95.475
2021, 15:14:30,67.265349,163.669626,878.168324,95.475
2022, 15:14:30,67.355508,164.076468,879.887784,95.475
2023, 15:14:30,67.010693,162.868253,874.598722,95.475
2024, 15:14:30,66.318813,159.86553,864.159091,95.475
2025, 15:14:30,65.688684,156.956203,855.84517,95.475
2026, 15:14:30,65.467645,155.568182,851.965909,95.475
2027, 15:14:30,65.422427,155.01965,851.262784,95.475
2028, 15:14:30,65.328677,154.575521,849.401989,95.475
2029, 15:14:30,65.297783,154.296757,849.817472,95.475
2030, 15:14:30,65.382378,154.566643,850.226562,95.475
2031, 15:14:30,65.560646,155.292259,853.631392,95.475
2032, 15:14:30,65.638179,155.727036,854.59233,95.475
2033, 15:14:30,65.659683,155.871094,855.09304,95.475
2034, 15:14:30,65.67152,155.931226,855.039062,95.475
2035, 15:14:30,65.712989,156.176373,855.890625,95.475
2036, 15:14:30,65.866438,156.781605,857.959517,95.475
2037, 15:14:30,65.986782,157.327296,859.841619,95.475
2038, 15:14:30,66.131432,158.064276,860.962358,95.475
2039, 15:14:30,66.240491,158.534446,863.678267,95.475
2040, 15:14:31,66.349353,159.1134,864.776989,95.475
2041, 15:14:31,66.455137,159.574692,865.854403,95.475
2042, 15:14:31,66.543403,159.951705,866.71875,95.475
2043, 15:14:31,66.621252,160.40258,868.523438,95.475
2044, 15:14:31,66.677202,160.704901,869.53054,95.475
2045, 15:14:31,66.812658,161.237216,871.383523,95.475
2046, 15:14:31,66.85831,161.760535,871.620028,95.475
2047, 15:14:31,66.996567,162.390743,874.074574,95.475
2048, 15:14:31,66.819287,161.713068,870.917614,95.475
2049, 15:14:31,66.158499,158.796046,861.878551,95.475
2050, 15:14:31,65.492779,155.670573,852.009233,95.475
2051, 15:14:31,65.104837,153.725497,846.867188,95.475
2052, 15:14:31,64.95711,152.757221,843.975142,95.475
2053, 15:14:31,64.816248,152.052438,841.959517,95.475
2054, 15:14:31,64.709162,151.471709,840.503551,95.475
2055, 15:14:31,64.708097,151.329309,840.305398,95.475
2056, 15:14:31,64.872633,151.998106,843.261364,95.475
2057, 15:14:31,65.064512,152.828954,845.828835,95.475
2058, 15:14:31,65.128117,153.191643,845.985085,95.475
2059, 15:14:31,65.201507,153.518348,847.482244,95.475
2060, 15:14:31,65.226997,153.718868,847.699574,95.475
2061, 15:14:31,65.341501,154.28634,849.877131,95.475
2062, 15:14:31,65.496173,154.941643,852.075994,95.475
2063, 15:14:31,65.620186,155.611979,854.609375,95.475
2064, 15:14:31,65.772214,156.344105,855.632812,95.475
2065, 15:14:31,65.895715,156.947088,858.65696,95.475
2066, 15:14:31,66.049085,157.669981,860.159091,95.475
2067, 15:14:31,66.137153,158.160038,861.596591,95.475
2068, 15:14:31,66.288155,158.881984,863.036222,95.475
2069, 15:14:31,66.362689,159.458333,865.784091,95.475
2070, 15:14:32,66.510496,160.104877,866.59517,95.75
2071, 15:14:32,66.618134,160.674953,867.56392,95.75
2072, 15:14:32,66.737729,161.399266,869.489347,95.75
2073, 15:14:32,66.883641,162.085582,872.132812,95.75
2074, 15:14:32,67.02032,162.776397,873.752131,95.75
2075, 15:14:32,67.156092,163.401989,876.059659,95.75
2076, 15:14:32,66.818221,162.401634,871.108665,95.75
2077, 15:14:32,66.209912,159.790246,863.491477,95.75
2078, 15:14:32,65.76089,157.713542,855.565341,95.75
2079, 15:14:32,65.593513,156.729877,853.31392,95.75
2080, 15:14:32,65.509509,156.156368,851.895597,95.75
2081, 15:14:32,65.411892,155.736151,851.223722,95.75
2082, 15:14:32,65.36407,155.509825,850.84304,95.75
2083, 15:14:32,65.436948,155.787642,851.541193,95.75
2084, 15:14:32,65.690657,156.835227,854.548295,95.75
2085, 15:14:32,65.785511,157.526515,856.84375,95.75
2086, 15:14:32,65.919863,158.100024,858.165483,95.75
2087, 15:14:32,65.98911,158.535985,859.681818,95.75
2088, 15:14:32,66.100142,159.092093,861.353693,95.75
2089, 15:14:32,66.225142,159.748816,863.203125,95.75
2090, 15:14:32,66.361269,160.360322,864.90625,95.75
2091, 15:14:32,66.544192,161.241951,867.829545,95.75
2092, 15:14:32,66.634943,161.906723,868.440341,95.75
2093, 15:14:32,66.839844,162.717448,871.955256,95.75
2094, 15:14:32,66.93675,163.448982,873.628551,95.75
2095, 15:14:32,67.089883,164.199574,875.401989,95.75
2096, 15:14:32,67.236861,164.906132,877.757812,95.75
2097, 15:14:32,67.370423,165.73911,880.122159,95.75
2098, 15:14:32,67.503038,166.471709,882.398438,95.75
2099, 15:14:32,67.61699,167.17294,883.807528,95.75
2100, 15:14:33,67.743253,168.002959,887.068892,95.775
2101, 15:14:33,67.813999,168.723248,888.757102,95.775
2102, 15:14:33,67.946536,169.575876,892.080256,95.775
2103, 15:14:33,68.047625,170.335582,893.519176,95.775
2104, 15:14:33,68.17657,171.028764,895.516335,95.775
2105, 15:14:33,68.330532,171.979285,898.284801,95.775
2106, 15:14:33,68.297191,172.297348,897.619318,95.775
2107, 15:14:33,68.058909,171.467921,895.128551,95.775
2108, 15:14:33,67.5756,169.658144,888.693182,95.775
2109, 15:14:33,67.402107,168.601207,884.786222,95.775
2110, 15:14:33,67.343395,168.155658,883.786222,95.775
2111, 15:14:33,67.332781,167.977983,883.853693,95.775
2112, 15:14:33,67.283302,167.682765,882.289773,95.775
2113, 15:14:33,67.270991,167.583807,881.826705,95.775
2114, 15:14:33,67.386285,168.062263,883.578125,95.775
2115, 15:14:33,67.527146,168.608902,886.150568,95.775
2116, 15:14:33,67.562461,168.956795,887.129972,95.775
2117, 15:14:33,67.573469,169.100142,887.87358,95.775
2118, 15:14:33,67.629893,169.367424,888.400568,95.775
2119, 15:14:33,67.639323,169.68312,889.141335,95.775
2120, 15:14:33,67.759272,170.204427,891.371449,95.775
2121, 15:14:33,67.863123,170.726681,892.448153,95.775
2122, 15:14:33,67.916548,171.243016,893.904119,95.775
2123, 15:14:33,68.012113,171.794389,895.351562,95.775
2124, 15:14:33,68.06175,172.227391,895.90696,95.775
2125, 15:14:33,68.157631,172.762192,898.129972,95.775
2126, 15:14:33,68.247356,173.221709,899.568892,95.775
2127, 15:14:33,68.347222,173.844697,901.321023,95.775
2128, 15:14:33,68.432371,174.342566,902.12358,95.775
2129, 15:14:33,68.496607,174.764915,903.944602,95.775
2130, 15:14:34,68.622593,175.354048,905.533381,95.775
2131, 15:14:34,68.690499,175.87642,906.704545,95.775
2132, 15:14:34,68.813644,176.556463,908.392756,95.775
2133, 15:14:34,68.895005,177.049124,909.235085,95.775
2134, 15:14:34,68.886127,177.276278,909.575284,95.775
2135, 15:14:34,68.532434,176.069839,904.65483,95.775
2136, 15:14:34,68.242306,174.55883,900.827415,95.775
2137, 15:14:34,68.095131,173.661813,898.408381,95.775
2138, 15:14:34,68.042298,173.181345,897.309659,95.775
2139, 15:14:34,68.015309,172.779356,897.210227,95.775
2140, 15:14:34,67.954545,172.486742,895.258523,95.775
2141, 15:14:34,67.976444,172.458688,896.039062,95.775
2142, 15:14:34,68.025055,172.604522,896.03054,95.775
2143, 15:14:34,68.136245,173.007221,897.736506,95.775
2144, 15:14:34,68.150568,173.028409,898.0,95.775
2145, 15:14:34,68.157868,173.037997,898.591619,95.775
2146, 15:14:34,68.180832,173.03492,898.377131,95.775
2147, 15:14:34,68.21804,173.202888,899.242898,95.775
2148, 15:14:34,68.276831,173.517045,899.778409,95.775
2149, 15:14:34,68.32122,173.738755,900.59446,95.775
2150, 15:14:34,68.462674,174.33215,903.697443,95.775
2151, 15:14:34,68.478378,174.47964,902.738636,95.775
2152, 15:14:34,68.5756,174.919981,904.079545,95.775
2153, 15:14:34,68.618687,175.142045,905.423295,95.775
2154, 15:14:34,68.674834,175.476207,906.470881,95.775
2155, 15:14:34,68.74491,175.840791,907.272017,95.775
2156, 15:14:34,68.856534,176.304451,908.375,95.775
2157, 15:14:34,68.931897,176.635653,909.541193,95.775
2158, 15:14:34,69.015309,177.014678,910.571023,95.775
2159, 15:14:34,69.130997,177.580492,913.153409,95.775
2160, 15:14:35,69.154198,177.901989,912.826705,95.825
2161, 15:14:35,69.122554,177.882339,913.367898,95.825
2162, 15:14:35,68.746212,176.168561,906.497159,95.825
2163, 15:14:35,68.424795,174.45857,902.353693,95.825
2164, 15:14:35,68.247396,173.255445,898.768466,95.825
2165, 15:14:35,68.19476,172.597538,898.241477,95.825
2166, 15:14:35,68.142361,171.914299,896.170455,95.825
2167, 15:14:35,68.07339,171.117898,894.553977,95.825
2168, 15:14:35,68.067274,170.732126,893.301847,95.825
2169, 15:14:35,68.090633,170.660156,893.654119,95.825
2170, 15:14:35,68.168008,170.81321,893.836648,95.825
2171, 15:14:35,68.164536,170.647017,894.526989,95.825
2172, 15:14:35,68.113794,170.581439,893.639205,95.825
2173, 15:14:35,68.125395,170.369555,893.59233,95.825
2174, 15:14:35,68.147491,170.405066,894.075284,95.825
2175, 15:14:35,68.197246,170.509825,894.081676,95.825
2176, 15:14:35,68.246646,170.748935,894.985085,95.825
2177, 15:14:35,68.341698,171.044981,896.457386,95.825
2178, 15:14:35,68.366675,171.170099,896.611506,95.825
2179, 15:14:35,68.424045,171.517401,898.450994,95.825
2180, 15:14:35,68.464252,171.671165,898.893466,95.825
2181, 15:14:35,68.55161,171.882102,899.985795,95.825
2182, 15:14:35,68.601562,172.227509,900.833807,95.825
2183, 15:14:35,68.650095,172.563447,901.34375,95.825
2184, 15:14:35,68.714134,172.886245,901.99929,95.825
2185, 15:14:35,68.783104,173.229995,903.71804,95.825
2186, 15:14:35,68.891335,173.639441,904.677557,95.825
2187, 15:14:35,68.940933,173.986624,905.277699,95.825
2188, 15:14:35,69.043482,174.409801,907.02983,95.825
2189, 15:14:35,69.054648,174.697088,907.517756,95.825
2190, 15:14:36,69.194208,175.275331,909.447443,95.825
2191, 15:14:36,69.250671,175.639323,910.549006,95.825
2192, 15:14:36,69.147688,175.189276,908.672585,95.825
2193, 15:14:36,68.696023,173.070549,901.900568,95.825
2194, 15:14:36,68.346157,171.140743,896.139915,95.825
2195, 15:14:36,68.236269,169.87642,893.105114,95.825
2196, 15:14:36,68.151397,169.0683,890.864347,95.825
2197, 15:14:36,68.093198,168.472775,889.734375,95.825
2198, 15:14:36,67.932884,167.461529,886.950994,95.825
2199, 15:14:36,67.894729,167.035985,885.517045,95.825
2200, 15:14:36,67.90917,167.016809,886.075284,95.825
2201, 15:14:36,67.961845,167.073509,886.850142,95.825
2202, 15:14:36,67.987137,167.054214,886.660511,95.825
2203, 15:14:36,67.937461,166.894295,886.010653,95.825
2204, 15:14:36,67.990925,166.98035,886.893466,95.825
2205, 15:14:36,68.005524,166.959754,887.136364,95.825
2206, 15:14:36,68.05157,167.244673,887.914062,95.825
2207, 15:14:36,68.135574,167.572443,889.170455,95.825
2208, 15:14:36,68.249329,167.952533,890.266335,95.825
2209, 15:14:36,68.324968,168.295928,891.713068,95.825
2210, 15:14:36,68.401594,168.635653,893.274148,95.825
2211, 15:14:36,68.474945,168.984967,894.574574,95.825
2212, 15:14:36,68.489031,169.198153,894.734375,95.825
2213, 15:14:36,68.620699,169.710109,897.360085,95.825
2214, 15:14:36,68.676965,170.090554,897.634233,95.825
2215, 15:14:36,68.770084,170.634588,899.418324,95.825
2216, 15:14:36,68.865096,171.010062,900.784801,95.825
2217, 15:14:36,68.95277,171.582268,902.62429,95.825
2218, 15:14:36,69.021188,171.986861,903.776278,95.825
2219, 15:14:36,69.09304,172.522964,905.208807,95.825
2220, 15:14:37,69.24712,173.108783,906.74929,95.85
2221, 15:14:37,69.275765,173.402107,908.017756,95.85
2222, 15:14:37,69.376105,174.003788,909.519886,95.85
2223, 15:14:37,69.467053,174.479285,911.03196,95.85
2224, 15:14:37,69.508365,174.950284,910.960227,95.85
2225, 15:14:37,69.268782,174.018939,908.303977,95.85
2226, 15:14:37,68.786379,171.711411,900.37642,95.85
2227, 15:14:37,68.498343,169.935843,895.600852,95.85
2228, 15:14:37,68.396346,168.975971,892.733665,95.85
2229, 15:14:37,68.37934,168.48035,891.461648,95.85
2230, 15:14:37,68.244437,167.800071,890.027699,95.85
2231, 15:14:37,68.186474,167.36482,889.430398,95.85
2232, 15:14:37,68.15988,167.107008,888.068182,95.85
2233, 15:14:37,68.26886,167.421638,889.816761,95.85
2234, 15:14:37,68.320549,167.553977,890.559659,95.85
2235, 15:14:37,68.34813,167.639086,890.953835,95.85
2236, 15:14:37,68.35977,167.696733,890.526989,95.85
2237, 15:14:37,68.375513,167.779948,891.605824,95.85
2238, 15:14:37,68.446575,167.979877,892.762784,95.85
2239, 15:14:37,68.496528,168.265152,893.088068,95.85
2240, 15:14:37,68.641059,168.836056,895.064631,95.85
2241, 15:14:37,68.735006,169.270833,897.119318,95.85
2242, 15:14:37,68.812539,169.689986,898.608665,95.85
2243, 15:14:37,68.908617,170.196023,900.349432,95.85
2244, 15:14:37,68.974235,170.627249,900.40554,95.85
2245, 15:14:37,69.07919,171.064276,902.933949,95.85
2246, 15:14:37,69.137666,171.404001,903.051847,95.85
2247, 15:14:37,69.24929,172.077888,905.867898,95.85
2248, 15:14:37,69.31684,172.43821,906.697443,95.85
2249, 15:14:37,69.454506,172.958688,909.195312,95.85
2250, 15:14:38,69.470013,173.369318,908.880682,95.85
