frame_index,timestamp,R,G,B,average_SpO2
0, 11:23:45,66.386798,190.325166,904.672585,97.5
1, 11:23:45,66.436277,190.687145,904.577415,97.5
2, 11:23:45,66.455177,190.910038,904.105114,97.5
3, 11:23:45,66.570431,191.341501,906.620028,97.5
4, 11:23:45,66.655461,191.559659,909.099432,97.5
5, 11:23:45,66.650608,191.941406,910.100142,97.5
6, 11:23:45,66.737019,192.274503,911.371449,97.5
7, 11:23:45,66.790956,192.650331,910.87358,97.5
8, 11:23:45,66.877801,193.016454,914.002131,97.5
9, 11:23:45,66.927083,193.420455,913.8125,97.5
10, 11:23:45,66.974353,193.812737,914.620739,97.5
11, 11:23:45,66.944563,193.772609,914.757812,97.5
12, 11:23:45,66.638021,192.582623,909.859375,97.5
13, 11:23:45,66.281605,190.798887,903.918324,97.5
14, 11:23:45,66.130524,189.764678,901.471591,97.5
15, 11:23:45,66.104798,189.274148,901.380682,97.5
16, 11:23:45,66.086174,189.122633,901.048295,97.5
17, 11:23:45,66.141256,189.203125,902.017045,97.5
18, 11:23:45,66.142006,189.272609,902.158381,97.5
19, 11:23:45,66.246212,189.607481,903.545455,97.5
20, 11:23:45,66.267479,189.866832,903.868608,97.5
21, 11:23:45,66.248856,189.776397,903.641335,97.5
22, 11:23:45,66.253512,189.847183,903.352983,97.5
23, 11:23:45,66.265862,189.903172,903.93608,97.5
24, 11:23:45,66.334912,190.153409,904.482955,97.5
25, 11:23:45,66.412169,190.475142,906.109375,97.5
26, 11:23:45,66.47818,190.809067,906.647017,97.5
27, 11:23:45,66.5756,191.219697,908.8125,97.5
28, 11:23:45,66.62571,191.517756,908.68608,97.5
29, 11:23:45,66.707663,191.971946,910.345881,97.5
30, 11:23:46,66.769295,192.332505,911.037642,97.5
31, 11:23:46,66.513021,191.708097,904.802557,97.5
32, 11:23:46,66.611387,191.98473,905.891335,97.5
33, 11:23:46,66.644334,192.182528,906.660511,97.5
34, 11:23:46,66.761087,192.726444,908.006392,97.5
35, 11:23:46,66.828007,193.066406,909.202415,97.5
36, 11:23:46,66.857126,193.445904,908.899858,97.5
37, 11:23:46,66.917535,193.847775,910.700284,97.5
38, 11:23:46,67.021465,194.387311,912.943182,97.5
39, 11:23:46,67.102431,194.821496,914.639205,97.5
40, 11:23:46,67.134549,195.145597,914.518466,97.5
41, 11:23:46,67.232126,195.751302,915.982244,97.5
42, 11:23:46,67.265388,196.067945,916.791193,97.5
43, 11:23:46,67.21729,195.915601,915.959517,97.5
44, 11:23:46,66.795889,194.177438,909.462358,97.5
45, 11:23:46,66.362176,191.845526,903.698153,97.5
46, 11:23:46,66.160748,190.345881,899.578125,97.5
47, 11:23:46,66.102943,189.6933,898.492188,97.5
48, 11:23:46,66.095368,189.40116,898.301847,97.5
49, 11:23:46,66.053622,189.070904,897.87429,97.5
50, 11:23:46,65.971946,188.654948,895.912642,97.5
51, 11:23:46,66.009549,188.692945,896.97017,97.5
52, 11:23:46,66.030855,188.799006,897.27983,97.5
53, 11:23:46,66.078717,188.952533,897.996449,97.5
54, 11:23:46,66.057686,188.944839,897.81392,97.5
55, 11:23:46,66.055753,188.968868,898.043324,97.5
56, 11:23:46,66.079743,189.029001,897.881392,97.5
57, 11:23:46,66.123106,189.189867,898.727273,97.5
58, 11:23:46,66.225773,189.684896,899.757102,97.5
59, 11:23:46,66.267519,189.914773,900.275568,97.5
60, 11:23:47,66.34955,190.227154,901.612926,97.5
61, 11:23:47,66.39607,190.570786,902.75142,97.5
62, 11:23:47,66.454664,190.990412,902.948153,97.5
63, 11:23:47,66.551136,191.27036,904.488636,97.5
64, 11:23:47,66.585464,191.545691,904.853693,97.5
65, 11:23:47,66.700284,191.9375,905.997159,97.5
66, 11:23:47,66.777186,192.401634,907.310369,97.5
67, 11:23:47,66.837437,192.735322,908.318182,97.5
68, 11:23:47,66.891769,193.002959,909.037642,97.5
69, 11:23:47,66.702888,192.452888,906.697443,97.5
70, 11:23:47,66.308199,190.669863,901.098722,97.5
71, 11:23:47,66.032749,189.169744,896.671875,97.5
72, 11:23:47,65.960109,188.457978,895.014915,97.5
73, 11:23:47,65.940104,188.1366,895.271307,97.5
74, 11:23:47,65.958176,188.117898,895.622159,97.5
75, 11:23:47,65.938131,188.030303,895.377841,97.5
76, 11:23:47,66.002012,188.233783,896.144176,97.5
77, 11:23:47,66.066604,188.482955,896.534091,97.5
78, 11:23:47,66.059501,188.588542,896.139205,97.5
79, 11:23:47,66.088621,188.784801,897.205966,97.5
80, 11:23:47,66.090159,188.776634,897.060369,97.5
81, 11:23:47,66.135417,188.95786,898.210227,97.5
82, 11:23:47,66.19764,189.236387,899.040483,97.5
83, 11:23:47,66.28922,189.626657,900.43892,97.5
84, 11:23:47,66.396149,190.059186,902.008523,97.5
85, 11:23:47,66.431818,190.313447,902.167614,97.5
86, 11:23:47,66.556424,190.893703,904.041193,97.5
87, 11:23:47,66.601997,191.184777,904.691051,97.5
88, 11:23:47,66.729916,191.724787,905.757812,97.5
89, 11:23:47,66.743845,191.913352,906.875,97.5
90, 11:23:48,66.854956,192.356534,907.8125,97.5
91, 11:23:48,66.92732,192.755445,909.208807,97.5
92, 11:23:48,66.983586,193.107955,910.576705,97.5
93, 11:23:48,67.039773,193.628314,911.440341,97.5
94, 11:23:48,67.136679,193.987689,911.627841,97.5
95, 11:23:48,67.250355,194.491596,914.28196,97.5
96, 11:23:48,67.317827,194.818063,915.058949,97.5
97, 11:23:48,67.404396,195.384588,916.895597,97.5
98, 11:23:48,67.44259,195.721236,916.705256,97.5
99, 11:23:48,67.484888,196.142637,917.665483,97.5
100, 11:23:48,67.61628,196.78776,919.411222,97.5
101, 11:23:48,67.617148,197.010062,920.401278,97.5
102, 11:23:48,67.473919,196.689276,918.047585,97.5
103, 11:23:48,67.072364,194.73982,911.294034,97.5
104, 11:23:48,66.806226,193.164891,906.710938,97.5
105, 11:23:48,66.724037,192.412642,906.112216,97.5
106, 11:23:48,66.74637,192.249053,906.823864,97.5
107, 11:23:48,66.764994,192.152462,906.1875,97.5
108, 11:23:48,66.749684,192.043561,906.644886,97.5
109, 11:23:48,66.783183,192.140743,906.645597,97.5
110, 11:23:48,66.861742,192.310606,906.625,97.5
111, 11:23:48,66.890112,192.436435,908.325994,97.5
112, 11:23:48,66.849274,192.410511,907.392045,97.5
113, 11:23:48,66.850497,192.415601,907.263494,97.5
114, 11:23:48,66.852391,192.514086,908.40554,97.5
115, 11:23:48,66.922625,192.711529,908.700994,97.5
116, 11:23:48,66.976326,192.958807,909.482955,97.5
117, 11:23:48,67.036971,193.355705,910.486506,97.5
118, 11:23:48,67.126736,193.708333,911.53125,97.5
119, 11:23:48,67.121094,193.971236,911.958097,97.5
120, 11:23:49,67.261166,194.444957,913.928267,97.5
121, 11:23:49,67.265388,194.690104,914.242898,97.5
122, 11:23:49,67.359217,195.116004,915.383523,97.5
123, 11:23:49,67.390507,195.404001,916.142756,97.5
124, 11:23:49,67.395202,195.732955,916.068182,97.5
125, 11:23:49,67.386995,195.736269,916.301136,97.5
126, 11:23:49,67.135417,194.633523,911.463068,97.5
127, 11:23:49,66.887113,193.225734,908.206676,97.5
128, 11:23:49,66.72676,192.309067,905.584517,97.5
129, 11:23:49,66.769807,192.135653,906.899148,97.5
130, 11:23:49,66.788431,192.090672,906.444602,97.5
131, 11:23:49,66.818853,192.094815,906.960938,97.5
132, 11:23:49,66.863518,192.304096,907.622869,97.5
133, 11:23:49,66.915601,192.61849,908.00071,97.5
134, 11:23:49,66.944602,192.785985,908.957386,97.5
135, 11:23:49,66.948627,192.814157,908.629261,97.5
136, 11:23:49,66.981021,192.921283,909.039062,97.5
137, 11:23:49,66.979206,193.011482,909.293324,97.5
138, 11:23:49,67.043245,193.273201,911.071023,97.5
139, 11:23:49,67.156605,193.823509,912.759233,97.5
140, 11:23:49,67.196299,194.035866,912.709517,97.5
141, 11:23:49,67.310606,194.504735,914.204545,97.5
142, 11:23:49,67.329743,194.793679,914.15696,97.5
143, 11:23:49,67.442116,195.264796,916.517756,97.5
144, 11:23:49,67.497001,195.548769,916.744318,97.5
145, 11:23:49,67.546914,196.053622,917.560369,97.5
146, 11:23:49,67.600813,196.366359,918.783381,97.5
147, 11:23:49,67.637745,196.660393,919.317472,97.5
148, 11:23:49,67.704309,197.150331,921.237216,97.5
149, 11:23:49,67.757655,197.571733,922.254261,97.5
150, 11:23:50,67.806542,197.960346,923.071733,97.475
151, 11:23:50,67.900253,198.43892,924.417614,97.475
152, 11:23:50,67.939354,198.699692,924.638494,97.475
153, 11:23:50,68.017243,199.26669,926.799006,97.475
154, 11:23:50,68.011719,199.408262,926.480824,97.475
155, 11:23:50,67.750079,198.446733,922.495739,97.475
156, 11:23:50,67.338344,196.353575,915.578835,97.475
157, 11:23:50,67.15992,194.627959,912.114347,97.475
158, 11:23:50,67.1192,193.791312,910.665483,97.475
159, 11:23:50,67.037524,193.238045,909.547585,97.475
160, 11:23:50,67.039536,192.994081,909.225852,97.475
161, 11:23:50,66.923098,192.393348,907.845881,97.475
162, 11:23:50,66.961648,192.401989,908.113636,97.475
163, 11:23:50,66.98402,192.493253,908.851562,97.475
164, 11:23:50,67.006944,192.632576,909.241477,97.475
165, 11:23:50,66.997041,192.631747,909.455256,97.475
166, 11:23:50,66.984217,192.626894,908.659091,97.475
167, 11:23:50,67.012311,192.725852,908.948864,97.475
168, 11:23:50,67.054727,192.891454,910.235085,97.475
169, 11:23:50,67.124014,193.313802,911.263494,97.475
170, 11:23:50,67.211135,193.643821,912.192472,97.475
171, 11:23:50,67.25142,193.88447,912.579545,97.475
172, 11:23:50,67.342014,194.308239,914.164773,97.475
173, 11:23:50,67.395163,194.63956,915.095881,97.475
174, 11:23:50,67.466343,195.039654,915.729403,97.475
175, 11:23:50,67.49925,195.289891,915.963778,97.475
176, 11:23:50,67.590396,195.746567,917.504972,97.475
177, 11:23:50,67.636127,196.057528,918.84517,97.475
178, 11:23:50,67.732639,196.53125,919.982955,97.475
179, 11:23:50,67.77253,196.87062,920.945312,97.475
180, 11:23:51,67.64607,196.540956,918.481534,97.5
181, 11:23:51,67.296441,194.846709,913.111506,97.5
182, 11:23:51,66.960227,193.149148,907.556818,97.5
183, 11:23:51,66.910038,192.276515,907.022727,97.5
184, 11:23:51,66.861979,191.836411,906.552557,97.5
185, 11:23:51,66.826902,191.582031,906.21946,97.5
186, 11:23:51,66.811474,191.268703,906.200284,97.5
187, 11:23:51,66.823074,191.31108,906.508523,97.5
188, 11:23:51,66.901634,191.638613,907.362926,97.5
189, 11:23:51,66.922151,191.829427,907.763494,97.5
190, 11:23:51,66.959478,191.978812,908.023438,97.5
191, 11:23:51,66.951744,192.002486,908.00071,97.5
192, 11:23:51,66.99929,192.183949,908.865057,97.5
193, 11:23:51,67.047112,192.418797,909.308239,97.5
194, 11:23:51,67.143505,192.82777,910.514915,97.5
195, 11:23:51,67.224156,193.233546,912.108665,97.5
196, 11:23:51,67.303701,193.677675,913.546165,97.5
197, 11:23:51,67.436435,194.189512,914.830256,97.5
198, 11:23:51,67.464962,194.494318,915.508523,97.5
199, 11:23:51,67.567116,195.01527,916.59446,97.5
200, 11:23:51,67.632852,195.312382,917.212358,97.5
201, 11:23:51,67.727075,195.797704,919.777699,97.5
202, 11:23:51,67.751776,196.082978,919.932528,97.5
203, 11:23:51,67.850971,196.513139,921.073153,97.5
204, 11:23:51,67.940854,197.003433,921.622869,97.5
205, 11:23:51,67.968829,197.361506,922.93892,97.5
206, 11:23:51,68.035945,197.859257,924.814631,97.5
207, 11:23:51,68.139126,198.274384,925.836648,97.5
208, 11:23:51,68.218474,198.828717,927.611506,97.5
209, 11:23:51,68.278054,199.258404,928.590199,97.5
210, 11:23:52,68.318024,199.618371,928.59375,97.475
211, 11:23:52,68.412247,200.202652,930.505682,97.475
212, 11:23:52,68.418363,200.450166,931.115767,97.475
213, 11:23:52,68.522254,201.009943,932.872159,97.475
214, 11:23:52,68.568261,201.423532,934.433239,97.475
215, 11:23:52,68.599866,201.684541,934.257812,97.475
216, 11:23:52,68.300939,200.595999,929.612926,97.475
217, 11:23:52,67.817393,198.211174,922.732955,97.475
218, 11:23:52,67.709872,196.827533,918.90554,97.475
219, 11:23:52,67.658894,196.028291,917.683949,97.475
220, 11:23:52,67.689236,195.919508,918.3125,97.475
221, 11:23:52,67.664497,195.700876,917.912642,97.475
222, 11:23:52,67.658933,195.630682,917.829545,97.475
223, 11:23:52,67.682331,195.642637,918.426847,97.475
224, 11:23:52,67.745581,195.897254,919.022727,97.475
225, 11:23:52,67.773832,195.991004,919.642045,97.475
226, 11:23:52,67.732757,195.926018,918.229403,97.475
227, 11:23:52,67.731337,195.926965,918.323153,97.475
228, 11:23:52,67.746409,196.072562,918.855824,97.475
229, 11:23:52,67.8198,196.377012,919.818892,97.475
230, 11:23:52,67.835503,196.663234,920.769176,97.475
231, 11:23:52,67.950994,197.174479,922.09233,97.475
232, 11:23:52,68.039654,197.552675,923.713778,97.475
233, 11:23:52,68.059422,197.896544,924.191761,97.475
234, 11:23:52,68.126736,198.267519,925.465909,97.475
235, 11:23:52,68.136837,198.5625,925.451705,97.475
236, 11:23:52,68.192669,199.032552,927.161222,97.475
237, 11:23:52,68.270281,199.349195,928.419034,97.475
238, 11:23:52,68.327691,199.742069,929.512074,97.475
239, 11:23:52,68.393111,200.256984,930.564631,97.475
240, 11:23:53,68.401634,200.562382,931.34304,97.475
241, 11:23:53,68.375434,200.630563,930.817472,97.475
242, 11:23:53,68.096473,199.383641,925.671165,97.475
243, 11:23:53,67.843158,197.843395,922.102983,97.475
244, 11:23:53,67.73986,196.819484,919.635653,97.475
245, 11:23:53,67.741753,196.466738,919.189631,97.475
246, 11:23:53,67.767085,196.530421,920.034801,97.475
247, 11:23:53,67.794113,196.633759,920.06108,97.475
248, 11:23:53,67.859848,196.840436,920.295455,97.475
249, 11:23:53,67.89023,197.075994,920.975852,97.475
250, 11:23:53,67.897925,197.281368,922.09446,97.475
251, 11:23:53,67.923019,197.295099,922.318892,97.475
252, 11:23:53,67.885496,197.264441,921.839489,97.475
253, 11:23:53,67.901436,197.318419,922.308239,97.475
254, 11:23:53,67.936829,197.53492,922.666903,97.475
255, 11:23:53,67.979009,197.871686,923.551136,97.475
256, 11:23:53,67.998658,198.187263,924.455966,97.475
257, 11:23:53,68.097972,198.691643,926.098722,97.475
258, 11:23:53,68.160985,199.095644,926.960227,97.475
259, 11:23:53,68.162129,199.301255,927.100142,97.475
260, 11:23:53,68.250355,199.772846,928.370028,97.475
261, 11:23:53,68.285827,200.041667,929.582386,97.475
262, 11:23:53,68.344855,200.381155,930.681818,97.475
263, 11:23:53,68.36557,200.745384,931.514915,97.475
264, 11:23:53,68.432094,201.164181,932.013494,97.475
265, 11:23:53,68.483665,201.608665,933.322443,97.475
266, 11:23:53,68.520636,201.891454,933.891335,97.475
267, 11:23:53,68.606731,202.242543,935.09446,97.475
268, 11:23:53,68.643466,202.551136,935.528409,97.475
269, 11:23:53,68.75142,203.042614,936.792614,97.475
270, 11:23:54,68.800821,203.414773,938.21875,97.475
271, 11:23:54,68.756905,203.3067,937.496449,97.475
272, 11:23:54,68.393782,201.973485,931.508523,97.475
273, 11:23:54,68.02395,200.00509,926.323153,97.475
274, 11:23:54,67.8692,198.725024,922.821733,97.475
275, 11:23:54,67.832741,198.138376,922.50071,97.475
276, 11:23:54,67.879972,198.088778,922.728693,97.475
277, 11:23:54,67.886324,198.043442,922.820312,97.475
278, 11:23:54,67.866162,197.903883,921.630682,97.475
279, 11:23:54,67.902817,198.069247,922.892756,97.475
280, 11:23:54,67.937184,198.192708,922.911932,97.475
281, 11:23:54,67.93316,198.1991,922.921875,97.475
282, 11:23:54,67.89315,198.09517,922.65625,97.475
283, 11:23:54,67.927517,198.100734,923.814631,97.475
284, 11:23:54,67.933712,198.292614,923.965909,97.475
285, 11:23:54,68.003235,198.562263,924.711648,97.475
286, 11:23:54,68.038628,198.861624,925.226562,97.475
287, 11:23:54,68.071102,199.196259,926.71733,97.475
288, 11:23:54,68.158696,199.612926,927.839489,97.475
289, 11:23:54,68.165009,199.877604,928.134943,97.475
290, 11:23:54,68.227786,200.247751,928.824574,97.475
291, 11:23:54,68.249448,200.494555,930.02983,97.475
292, 11:23:54,68.313289,200.847064,931.110795,97.475
293, 11:23:54,68.403054,201.2442,932.365767,97.475
294, 11:23:54,68.383168,201.374882,931.851562,97.475
295, 11:23:54,68.202178,200.638731,929.329545,97.475
296, 11:23:54,67.803267,198.752131,921.919034,97.475
297, 11:23:54,67.602352,197.148911,919.100852,97.475
298, 11:23:54,67.529474,196.22242,916.74929,97.475
299, 11:23:54,67.541982,195.954545,916.534091,97.475
300, 11:23:55,67.536103,195.725734,916.612926,97.475
301, 11:23:55,67.491477,195.562027,916.034091,97.475
302, 11:23:55,67.552715,195.716383,916.872159,97.475
303, 11:23:55,67.574061,195.861387,917.230824,97.475
304, 11:23:55,67.60393,195.965199,917.305398,97.475
305, 11:23:55,67.564157,195.893229,917.580966,97.475
306, 11:23:55,67.603575,195.983546,917.654119,97.475
307, 11:23:55,67.60105,196.04652,918.196733,97.475
308, 11:23:55,67.651555,196.304096,918.648438,97.475
309, 11:23:55,67.735204,196.718868,920.463778,97.475
310, 11:23:55,67.779593,197.084517,920.012784,97.475
311, 11:23:55,67.883247,197.586766,922.46946,97.475
312, 11:23:55,67.89974,197.918442,922.87429,97.475
313, 11:23:55,67.987887,198.452296,924.352983,97.475
314, 11:23:55,68.006747,198.676018,924.990767,97.475
315, 11:23:55,68.046717,198.965909,926.164773,97.475
316, 11:23:55,68.103496,199.38009,927.328835,97.475
317, 11:23:55,68.149463,199.776515,928.056818,97.475
318, 11:23:55,68.258996,200.229167,929.988636,97.475
319, 11:23:55,68.248422,200.508049,930.181818,97.475
320, 11:23:55,68.37867,201.049361,931.679688,97.475
321, 11:23:55,68.41718,201.383641,931.691051,97.475
322, 11:23:55,68.534801,201.959044,934.106534,97.475
323, 11:23:55,68.597301,202.327415,935.59517,97.475
324, 11:23:55,68.631037,202.631747,935.216619,97.475
325, 11:23:55,68.737729,203.082031,936.705256,97.475
326, 11:23:55,68.755248,203.414891,936.833097,97.475
327, 11:23:55,68.791312,203.791548,937.43679,97.475
328, 11:23:55,68.741793,203.528409,936.914773,97.475
329, 11:23:55,68.213226,201.449337,929.340909,97.475
330, 11:23:56,67.748935,198.943774,922.327415,97.475
331, 11:23:56,67.559501,197.100379,917.494318,97.475
332, 11:23:56,67.554135,196.278883,916.460227,97.475
333, 11:23:56,67.511443,195.845407,916.333807,97.475
334, 11:23:56,67.470604,195.532079,915.865767,97.475
335, 11:23:56,67.411892,195.186435,915.527699,97.475
336, 11:23:56,67.446693,195.169152,915.137074,97.475
337, 11:23:56,67.460622,195.236032,915.333807,97.475
338, 11:23:56,67.439828,195.194484,915.107244,97.475
339, 11:23:56,67.433594,195.193774,915.051847,97.475
340, 11:23:56,67.404119,195.129972,914.768466,97.475
341, 11:23:56,67.444878,195.239465,915.916903,97.475
342, 11:23:56,67.489189,195.441051,916.399148,97.475
343, 11:23:56,67.586411,195.882812,917.112216,97.475
344, 11:23:56,67.651831,196.24053,917.849432,97.475
345, 11:23:56,67.685685,196.453362,918.87358,97.475
346, 11:23:56,67.813368,196.994081,920.646307,97.475
347, 11:23:56,67.838226,197.272254,921.306818,97.475
348, 11:23:56,67.906645,197.736506,922.546875,97.475
349, 11:23:56,67.935409,198.01598,923.735085,97.475
350, 11:23:56,68.000592,198.486624,924.550426,97.475
351, 11:23:56,68.040443,198.794626,925.716619,97.475
352, 11:23:56,68.097025,199.270241,926.533381,97.475
353, 11:23:56,68.183278,199.698035,927.776278,97.475
354, 11:23:56,68.209122,199.881155,928.267045,97.475
355, 11:23:56,68.060409,199.368253,925.678267,97.475
356, 11:23:56,67.57919,196.932647,917.953835,97.475
357, 11:23:56,67.261916,194.921165,913.330966,97.475
358, 11:23:56,67.115254,193.699929,909.918324,97.475
359, 11:23:56,67.087871,193.360204,909.845881,97.475
360, 11:23:57,67.099392,193.26598,910.115767,97.475
361, 11:23:57,67.062027,193.105587,909.818182,97.475
362, 11:23:57,67.153843,193.351207,910.723722,97.475
363, 11:23:57,67.188486,193.525687,911.546165,97.475
364, 11:23:57,67.24057,193.752959,912.21946,97.475
365, 11:23:57,67.210898,193.743016,912.429688,97.475
366, 11:23:57,67.199692,193.771425,911.992188,97.475
367, 11:23:57,67.25438,193.91134,912.462358,97.475
368, 11:23:57,67.300071,194.126065,913.151278,97.475
369, 11:23:57,67.44117,194.731179,915.730824,97.475
370, 11:23:57,67.485361,194.987334,916.017756,97.475
371, 11:23:57,67.580848,195.429569,917.080256,97.475
372, 11:23:57,67.625395,196.007339,917.97017,97.475
373, 11:23:57,67.706597,196.269413,919.153409,97.475
374, 11:23:57,67.79068,196.825166,920.524858,97.475
375, 11:23:57,67.86048,197.299716,921.926136,97.475
376, 11:23:57,67.924006,197.693419,922.211648,97.475
377, 11:23:57,68.019018,198.126657,924.035511,97.475
378, 11:23:57,68.074021,198.54072,925.741477,97.475
379, 11:23:57,68.128314,198.983428,926.940341,97.475
380, 11:23:57,68.227786,199.428149,927.725142,97.475
381, 11:23:57,68.304293,199.973011,929.769886,97.475
382, 11:23:57,68.378906,200.492306,930.996449,97.475
383, 11:23:57,68.443537,200.966974,932.489347,97.475
384, 11:23:57,68.513021,201.420691,933.18892,97.475
385, 11:23:57,68.564552,201.771307,933.636364,97.475
386, 11:23:57,68.658815,202.285156,935.477983,97.475
387, 11:23:57,68.70569,202.667732,936.114347,97.475
388, 11:23:57,68.721946,202.949455,936.574574,97.475
389, 11:23:57,68.340002,201.519058,930.824574,97.475
390, 11:23:58,67.861308,198.915365,923.236506,97.725
391, 11:23:58,67.554253,196.770241,917.175426,97.725
392, 11:23:58,67.482086,195.834991,915.291193,97.725
393, 11:23:58,67.489504,195.509706,916.242898,97.725
394, 11:23:58,67.496015,195.408499,916.115767,97.725
395, 11:23:58,67.533578,195.54581,915.527699,97.725
396, 11:23:58,67.539497,195.703717,916.466619,97.725
397, 11:23:58,67.601997,196.01669,918.372869,97.725
398, 11:23:58,67.584201,195.971828,917.276989,97.725
399, 11:23:58,67.539299,195.859848,917.247159,97.725
400, 11:23:58,67.545889,195.729522,916.777699,97.725
401, 11:23:58,67.527738,195.798651,916.914062,97.725
402, 11:23:58,67.615372,196.170928,917.633523,97.725
403, 11:23:58,67.664457,196.398201,917.90625,97.725
404, 11:23:58,67.753985,196.87938,919.560369,97.725
405, 11:23:58,67.821496,197.320549,921.650568,97.725
406, 11:23:58,67.848288,197.745147,921.933949,97.725
407, 11:23:58,67.930043,198.174124,924.365767,97.725
408, 11:23:58,67.961214,198.488281,924.193892,97.725
409, 11:23:58,68.017282,198.786695,925.762784,97.725
410, 11:23:58,68.040759,199.079664,925.762074,97.725
411, 11:23:58,68.140586,199.580374,927.928267,97.725
412, 11:23:58,68.21441,199.94768,928.052557,97.725
413, 11:23:58,68.192077,200.112216,928.698864,97.725
414, 11:23:58,67.930122,199.046993,923.955256,97.725
415, 11:23:58,67.486387,196.685961,917.053267,97.725
416, 11:23:58,67.253117,195.061908,913.041903,97.725
417, 11:23:58,67.120068,194.070431,911.269176,97.725
418, 11:23:58,67.140941,193.969223,911.25,97.725
419, 11:23:58,67.140941,193.977273,911.110795,97.725
420, 11:23:59,67.203598,194.147727,911.133523,97.725
421, 11:23:59,67.326113,194.648793,914.066051,97.725
422, 11:23:59,67.33361,194.886719,913.379972,97.725
423, 11:23:59,67.31392,194.933712,914.53125,97.725
424, 11:23:59,67.263021,194.810843,912.762784,97.725
425, 11:23:59,67.303938,194.973366,913.956676,97.725
426, 11:23:59,67.348445,195.08795,914.34304,97.725
427, 11:23:59,67.440854,195.519531,916.159801,97.725
428, 11:23:59,67.533499,195.914891,916.949574,97.725
429, 11:23:59,67.568103,196.295691,918.080966,97.725
430, 11:23:59,67.663628,196.943537,919.382812,97.725
431, 11:23:59,67.727154,197.222656,920.699574,97.725
432, 11:23:59,67.802636,197.819839,922.214489,97.725
433, 11:23:59,67.83795,198.153527,923.370028,97.725
434, 11:23:59,67.897057,198.654711,923.868608,97.725
435, 11:23:59,67.944957,198.930516,924.591619,97.725
436, 11:23:59,68.012074,199.402699,926.350852,97.725
437, 11:23:59,68.098445,199.801018,927.860085,97.725
438, 11:23:59,68.141888,200.137784,927.894886,97.725
439, 11:23:59,68.267361,200.697917,930.082386,97.725
440, 11:23:59,68.269886,201.042614,929.8125,97.725
441, 11:23:59,68.395754,201.553267,931.927557,97.725
442, 11:23:59,68.437303,201.915128,932.700994,97.725
443, 11:23:59,68.519492,202.406013,933.839489,97.725
444, 11:23:59,68.5131,202.408617,933.423295,97.725
445, 11:23:59,68.009036,200.501539,926.247869,97.725
446, 11:23:59,67.436474,197.503551,917.504261,97.725
447, 11:23:59,67.095052,194.920573,911.745028,97.725
448, 11:23:59,66.941091,193.741832,908.897017,97.725
449, 11:23:59,66.855311,193.173414,908.102983,97.725
450, 11:24:00,66.858546,192.970052,907.732244,97.725
451, 11:24:00,66.787603,192.607126,906.435369,97.725
452, 11:24:00,66.789773,192.545928,906.434659,97.725
453, 11:24:00,66.831795,192.642637,907.585938,97.725
454, 11:24:00,66.813408,192.690696,906.888494,97.725
455, 11:24:00,66.806345,192.696023,907.014205,97.725
456, 11:24:00,66.756155,192.558712,906.301136,97.725
457, 11:24:00,66.78997,192.628433,907.591619,97.725
458, 11:24:00,66.856652,192.894768,907.919744,97.725
459, 11:24:00,66.930911,193.166785,908.799006,97.725
460, 11:24:00,67.016927,193.697088,910.43821,97.725
461, 11:24:00,67.127446,194.166903,911.953125,97.725
462, 11:24:00,67.195431,194.595289,914.361506,97.725
463, 11:24:00,67.229246,194.863873,913.754261,97.725
464, 11:24:00,67.363045,195.404948,915.398438,97.725
465, 11:24:00,67.364307,195.77474,915.290483,97.725
466, 11:24:00,67.417061,196.069839,915.879261,97.725
467, 11:24:00,67.520557,196.491122,917.764915,97.725
468, 11:24:00,67.509864,196.747869,918.078125,97.725
469, 11:24:00,67.64027,197.208688,920.544744,97.725
470, 11:24:00,67.705492,197.769413,921.701705,97.725
471, 11:24:00,67.730074,198.030658,921.590199,97.725
472, 11:24:00,67.417416,196.777817,917.575994,97.725
473, 11:24:00,66.900213,194.179806,909.24929,97.725
474, 11:24:00,66.514007,191.861151,902.908381,97.725
475, 11:24:00,66.295021,190.458452,899.935369,97.725
476, 11:24:00,66.244673,189.966027,898.631392,97.725
477, 11:24:00,66.217724,189.759233,898.774148,97.725
478, 11:24:00,66.1948,189.64027,898.06321,97.725
479, 11:24:00,66.23907,189.748935,898.820312,97.725
480, 11:24:01,66.268466,189.923769,899.6875,97.725
481, 11:24:01,66.309896,190.140862,899.947443,97.725
482, 11:24:01,66.274424,190.163707,899.476562,97.725
483, 11:24:01,66.322364,190.244555,900.65483,97.725
484, 11:24:01,66.356889,190.379853,900.387074,97.725
485, 11:24:01,66.418324,190.64607,901.927557,97.725
486, 11:24:01,66.532907,191.108665,903.691761,97.725
487, 11:24:01,66.608112,191.48911,904.698864,97.725
488, 11:24:01,66.733389,191.991832,906.129972,97.725
489, 11:24:01,66.789497,192.40116,906.65696,97.725
490, 11:24:01,66.90767,192.89536,908.903409,97.725
491, 11:24:01,66.951428,193.192827,909.43821,97.725
492, 11:24:01,67.040365,193.623461,909.754972,97.725
493, 11:24:01,67.135298,194.029948,911.424006,97.725
494, 11:24:01,67.18312,194.3183,912.12571,97.725
495, 11:24:01,67.276436,194.835464,914.259943,97.725
496, 11:24:01,67.277107,195.2442,913.419744,97.725
497, 11:24:01,67.41931,195.683594,916.064631,97.725
498, 11:24:01,67.478378,196.10322,916.988636,97.725
499, 11:24:01,67.58791,196.564867,918.508523,97.725
500, 11:24:01,67.610835,196.969815,918.864347,97.725
501, 11:24:01,67.669902,197.409328,921.024148,97.725
502, 11:24:01,67.774463,198.033617,922.105114,97.725
503, 11:24:01,67.81321,198.335464,923.009943,97.725
504, 11:24:01,67.742464,198.233073,922.159801,97.725
505, 11:24:01,67.227786,195.888849,913.566051,97.725
506, 11:24:01,66.726681,193.06688,906.165483,97.725
507, 11:24:01,66.422822,191.150095,900.860795,97.725
508, 11:24:01,66.302281,190.388376,898.830256,97.725
509, 11:24:01,66.314749,190.236387,899.597301,97.725
510, 11:24:02,66.256668,190.005327,898.995028,97.725
511, 11:24:02,66.285945,190.140033,899.629972,97.725
512, 11:24:02,66.327691,190.30883,900.432528,97.725
513, 11:24:02,66.365096,190.463187,900.611506,97.725
514, 11:24:02,66.352707,190.450639,900.095881,97.725
515, 11:24:02,66.327928,190.381037,900.263494,97.725
516, 11:24:02,66.343592,190.330966,900.690341,97.725
517, 11:24:02,66.345486,190.411932,900.514205,97.725
518, 11:24:02,66.465436,190.838068,902.224432,97.725
519, 11:24:02,66.51456,191.085346,902.458097,97.725
520, 11:24:02,66.631076,191.674479,903.612216,97.725
521, 11:24:02,66.688842,191.92732,904.68892,97.725
522, 11:24:02,66.797743,192.483665,906.84233,97.725
523, 11:24:02,66.878946,192.825284,907.980114,97.725
524, 11:24:02,66.88297,193.08357,907.862216,97.725
525, 11:24:02,66.999014,193.533499,909.584517,97.725
526, 11:24:02,67.05011,193.888494,910.53267,97.725
527, 11:24:02,67.091777,194.264915,910.600852,97.725
528, 11:24:02,67.212437,194.653883,912.264205,97.725
529, 11:24:02,67.070155,194.365767,910.992898,97.725
530, 11:24:02,66.658617,192.646307,904.809659,97.725
531, 11:24:02,66.218947,190.35902,898.083097,97.725
532, 11:24:02,65.972656,188.8692,894.553267,97.725
533, 11:24:02,65.907592,188.285275,894.336648,97.725
534, 11:24:02,65.869358,188.217921,893.435369,97.725
535, 11:24:02,65.879814,188.2616,893.674716,97.725
536, 11:24:02,65.942708,188.558712,893.980114,97.725
537, 11:24:02,66.072798,189.077296,896.691051,97.725
538, 11:24:02,66.069287,189.203125,896.15625,97.725
539, 11:24:02,66.040088,189.129735,896.193182,97.725
540, 11:24:03,66.056226,189.1308,896.56321,97.75
541, 11:24:03,66.049164,189.159801,896.259943,97.75
542, 11:24:03,66.129735,189.472538,897.164773,97.75
543, 11:24:03,66.228693,189.865057,899.153409,97.75
544, 11:24:03,66.351641,190.449337,900.653409,97.75
545, 11:24:03,66.422546,190.821615,901.216619,97.75
546, 11:24:03,66.508404,191.232126,902.503551,97.75
547, 11:24:03,66.565262,191.549006,903.117898,97.75
548, 11:24:03,66.648043,191.973485,904.221591,97.75
549, 11:24:03,66.751539,192.491832,905.854403,97.75
550, 11:24:03,66.807055,192.76965,906.00142,97.75
551, 11:24:03,66.841146,193.048532,907.100852,97.75
552, 11:24:03,66.940735,193.519176,908.774148,97.75
553, 11:24:03,67.00075,193.936908,909.411222,97.75
554, 11:24:03,67.051413,194.193063,910.612926,97.75
555, 11:24:03,66.721788,192.90258,905.713778,97.75
556, 11:24:03,66.186198,190.412287,897.840199,97.75
557, 11:24:03,65.777107,188.222893,892.263494,97.75
558, 11:24:03,65.534012,186.919744,888.705966,97.75
559, 11:24:03,65.503748,186.648082,888.527699,97.75
560, 11:24:03,65.443458,186.232836,886.973722,97.75
561, 11:24:03,65.431503,186.191761,887.090909,97.75
562, 11:24:03,65.460069,186.368371,887.724432,97.75
563, 11:24:03,65.563447,186.814867,890.522727,97.75
564, 11:24:03,65.585148,187.055634,889.78267,97.75
565, 11:24:03,65.601168,187.172348,890.008523,97.75
566, 11:24:03,65.590672,187.214252,889.870739,97.75
567, 11:24:03,65.628551,187.399384,890.87642,97.75
568, 11:24:03,65.701705,187.731534,891.340909,97.75
569, 11:24:03,65.792219,188.078362,892.21733,97.75
570, 11:24:04,65.931581,188.764915,895.00142,97.75
571, 11:24:04,66.046796,189.172112,896.37358,97.75
572, 11:24:04,66.147806,189.674479,898.441761,97.75
573, 11:24:04,66.252012,190.133404,899.036222,97.75
574, 11:24:04,66.283381,190.407907,899.640625,97.75
575, 11:24:04,66.420257,190.997514,901.976562,97.75
576, 11:24:04,66.48765,191.34742,902.695312,97.75
577, 11:24:04,66.558278,191.760062,903.361506,97.75
578, 11:24:04,66.650371,192.210582,905.246449,97.75
579, 11:24:04,66.732797,192.602273,905.892045,97.75
580, 11:24:04,66.82777,193.079901,907.06179,97.75
581, 11:24:04,66.880642,193.472893,908.507812,97.75
582, 11:24:04,66.99416,194.062973,910.065341,97.75
583, 11:24:04,67.021465,194.390625,911.446023,97.75
584, 11:24:04,67.128867,194.895597,912.447443,97.75
585, 11:24:04,67.202928,195.312855,912.922585,97.75
586, 11:24:04,67.302517,195.868253,914.848722,97.75
587, 11:24:04,67.269492,195.801373,914.49858,97.75
588, 11:24:04,66.726997,193.626065,906.057528,97.75
589, 11:24:04,66.11845,190.54285,897.200284,97.75
590, 11:24:04,65.704269,188.133641,891.409801,97.75
591, 11:24:04,65.537721,187.094223,888.946023,97.75
592, 11:24:04,65.450915,186.586648,887.639205,97.75
593, 11:24:04,65.371488,186.18312,887.147017,97.75
594, 11:24:04,65.313486,185.899266,886.080256,97.75
595, 11:24:04,65.333531,185.956558,886.412642,97.75
596, 11:24:04,65.427004,186.362926,887.580966,97.75
597, 11:24:04,65.429806,186.531368,888.06321,97.75
598, 11:24:04,65.451586,186.666312,888.009233,97.75
599, 11:24:04,65.473958,186.828598,888.605114,97.75
600, 11:24:05,65.513968,186.987926,888.950284,97.775
601, 11:24:05,65.639126,187.446733,891.00142,97.775
602, 11:24:05,65.724037,187.838305,892.416193,97.775
603, 11:24:05,65.836806,188.443182,894.147727,97.775
604, 11:24:05,65.941998,188.871922,895.007102,97.775
605, 11:24:05,66.028015,189.261127,896.759943,97.775
606, 11:24:05,66.138928,189.766217,897.929688,97.775
607, 11:24:05,66.219026,190.16276,899.161222,97.775
608, 11:24:05,66.320668,190.691643,900.365767,97.775
609, 11:24:05,66.386758,190.993134,900.901989,97.775
610, 11:24:05,66.53054,191.564157,902.487216,97.775
611, 11:24:05,66.599747,191.923295,903.963068,97.775
612, 11:24:05,66.663707,192.385062,904.821733,97.775
613, 11:24:05,66.795139,192.911932,907.576705,97.775
614, 11:24:05,66.838344,193.262666,907.885653,97.775
615, 11:24:05,66.902146,193.683239,908.997159,97.775
616, 11:24:05,67.008365,194.136364,909.818182,97.775
617, 11:24:05,67.048256,194.553859,910.649858,97.775
618, 11:24:05,67.14461,195.16063,913.307528,97.775
619, 11:24:05,67.158223,195.324574,912.964489,97.775
620, 11:24:05,66.72313,193.692116,906.950994,97.775
621, 11:24:05,66.113597,190.683594,897.524858,97.775
622, 11:24:05,65.766533,188.502723,891.803267,97.775
623, 11:24:05,65.530934,187.203125,889.008523,97.775
624, 11:24:05,65.478417,186.783262,887.43821,97.775
625, 11:24:05,65.421165,186.540483,887.177557,97.775
626, 11:24:05,65.368529,186.307765,886.772727,97.775
627, 11:24:05,65.440893,186.575521,887.683239,97.775
628, 11:24:05,65.490688,186.835227,888.946023,97.775
629, 11:24:05,65.543679,187.104522,889.99929,97.775
630, 11:24:06,65.528291,187.188565,889.68821,97.775
631, 11:24:06,65.565657,187.286932,890.204545,97.775
632, 11:24:06,65.603456,187.486979,890.308239,97.775
633, 11:24:06,65.692195,187.805753,891.314631,97.775
634, 11:24:06,65.832465,188.380445,893.910511,97.775
635, 11:24:06,65.896228,188.758759,895.15483,97.775
636, 11:24:06,66.038628,189.325166,896.033381,97.775
637, 11:24:06,66.108349,189.806581,898.038352,97.775
638, 11:24:06,66.163313,190.095526,898.635653,97.775
639, 11:24:06,66.307686,190.704309,900.075284,97.775
640, 11:24:06,66.357836,190.956084,900.776278,97.775
641, 11:24:06,66.490807,191.527344,902.987926,97.775
642, 11:24:06,66.580374,191.954664,903.864347,97.775
643, 11:24:06,66.632418,192.257576,904.323864,97.775
644, 11:24:06,66.65187,192.543679,904.895597,97.775
645, 11:24:06,66.328125,191.315814,900.607955,97.775
646, 11:24:06,65.815814,189.015152,892.420455,97.775
647, 11:24:06,65.446417,186.995028,886.794034,97.775
648, 11:24:06,65.286498,185.956084,884.742188,97.775
649, 11:24:06,65.269295,185.812618,884.96946,97.775
650, 11:24:06,65.236032,185.722301,885.325284,97.775
651, 11:24:06,65.304648,186.050781,886.571733,97.775
652, 11:24:06,65.449692,186.707031,888.551847,97.775
653, 11:24:06,65.499329,187.022135,889.558949,97.775
654, 11:24:06,65.540799,187.2384,889.651989,97.775
655, 11:24:06,65.507812,187.154593,889.24858,97.775
656, 11:24:06,65.560369,187.329782,889.370739,97.775
657, 11:24:06,65.592803,187.502841,890.349432,97.775
658, 11:24:06,65.718395,188.013613,891.502131,97.775
659, 11:24:06,65.848485,188.572443,894.264205,97.775
660, 11:24:07,65.951783,189.129498,895.65483,97.775
661, 11:24:07,66.094539,189.694129,897.730114,97.775
662, 11:24:07,66.159288,190.15258,897.551847,97.775
663, 11:24:07,66.281842,190.618726,900.152699,97.775
664, 11:24:07,66.368332,191.033499,900.360085,97.775
665, 11:24:07,66.436356,191.497988,902.135653,97.775
666, 11:24:07,66.511166,191.884351,903.147017,97.775
667, 11:24:07,66.618095,192.423887,904.137074,97.775
668, 11:24:07,66.732797,192.952652,905.903409,97.775
669, 11:24:07,66.79798,193.316761,906.474432,97.775
670, 11:24:07,66.892519,193.942708,908.508523,97.775
671, 11:24:07,66.963463,194.390388,910.27983,97.775
672, 11:24:07,67.049795,194.909328,911.68892,97.775
673, 11:24:07,67.133444,195.370028,912.805398,97.775
674, 11:24:07,67.226365,195.916312,914.151278,97.775
675, 11:24:07,67.309462,196.390033,915.348722,97.775
676, 11:24:07,67.247869,196.401752,914.427557,97.775
677, 11:24:07,66.73694,194.211293,906.745028,97.775
678, 11:24:07,66.072759,190.90483,896.494318,97.775
679, 11:24:07,65.677281,188.512429,890.980824,97.775
680, 11:24:07,65.478969,187.363518,888.402699,97.775
681, 11:24:07,65.409012,186.901752,887.276989,97.775
682, 11:24:07,65.32848,186.577296,886.026278,97.775
683, 11:24:07,65.293205,186.309541,885.112926,97.775
684, 11:24:07,65.375908,186.721473,886.976562,97.775
685, 11:24:07,65.436119,187.034209,888.409801,97.775
686, 11:24:07,65.504577,187.302083,888.880682,97.775
687, 11:24:07,65.486269,187.355587,889.377841,97.775
688, 11:24:07,65.514205,187.496212,889.352273,97.775
689, 11:24:07,65.61048,187.806818,890.803977,97.775
690, 11:24:08,65.713463,188.231771,891.336648,97.775
691, 11:24:08,65.836963,188.724432,893.960227,97.775
692, 11:24:08,65.942906,189.238281,894.773438,97.775
693, 11:24:08,66.078125,189.923295,897.173295,97.775
694, 11:24:08,66.182962,190.418679,898.088778,97.775
695, 11:24:08,66.311948,191.023438,899.990057,97.775
696, 11:24:08,66.412445,191.423887,901.90696,97.775
697, 11:24:08,66.484336,191.829901,903.03054,97.775
698, 11:24:08,66.607086,192.399858,904.370739,97.775
699, 11:24:08,66.629893,192.700284,904.190341,97.775
700, 11:24:08,66.769768,193.338187,906.446733,97.775
701, 11:24:08,66.825166,193.749171,907.801847,97.775
702, 11:24:08,66.925623,194.393821,909.550426,97.775
703, 11:24:08,66.9055,194.310251,908.929688,97.775
704, 11:24:08,66.390112,192.256037,901.345881,97.775
705, 11:24:08,65.825481,189.345762,894.080256,97.775
706, 11:24:08,65.418087,187.314867,886.985795,97.775
707, 11:24:08,65.286695,186.403646,885.725852,97.775
708, 11:24:08,65.258838,186.243371,885.667614,97.775
709, 11:24:08,65.25726,186.189867,885.485795,97.775
710, 11:24:08,65.255485,186.226681,885.166903,97.775
711, 11:24:08,65.367188,186.630445,886.84233,97.775
712, 11:24:08,65.473366,187.205611,888.631392,97.775
713, 11:24:08,65.491596,187.481889,889.700994,97.775
714, 11:24:08,65.562105,187.674479,889.833807,97.775
715, 11:24:08,65.585188,187.777344,890.118608,97.775
716, 11:24:08,65.683436,188.171993,891.546165,97.775
717, 11:24:08,65.788905,188.55232,893.15767,97.775
718, 11:24:08,65.944129,189.270833,895.676136,97.775
719, 11:24:08,66.080295,189.857836,897.283381,97.775
720, 11:24:09,66.148003,190.328007,897.956676,97.775
721, 11:24:09,66.31029,191.08428,900.880682,97.775
722, 11:24:09,66.400213,191.531605,901.658381,97.775
723, 11:24:09,66.541154,192.168916,903.058949,97.775
724, 11:24:09,66.592014,192.545928,904.289773,97.775
725, 11:24:09,66.700324,193.030895,905.708097,97.775
726, 11:24:09,66.791035,193.505208,907.0625,97.775
727, 11:24:09,66.818616,193.950166,907.959517,97.775
728, 11:24:09,66.929214,194.439157,909.382102,97.775
729, 11:24:09,67.02545,195.134115,911.006392,97.775
730, 11:24:09,67.160906,195.784801,913.794034,97.775
731, 11:24:09,67.240846,196.361742,914.696023,97.775
732, 11:24:09,67.345881,196.933949,916.444602,97.775
733, 11:24:09,67.448943,197.514441,917.660511,97.775
734, 11:24:09,67.473682,197.91205,918.307528,97.775
735, 11:24:09,67.58649,198.488163,920.599432,97.775
736, 11:24:09,67.661577,198.881037,921.908381,97.775
737, 11:24:09,67.756195,199.595289,923.960938,97.775
738, 11:24:09,67.796559,199.817235,923.6875,97.775
739, 11:24:09,67.392006,198.228101,918.303267,97.775
740, 11:24:09,66.679569,194.769768,907.03054,97.775
741, 11:24:09,66.173808,191.657789,899.242188,97.775
742, 11:24:09,65.948035,190.076113,894.797585,97.775
743, 11:24:09,65.913786,189.517874,894.527699,97.775
744, 11:24:09,65.874132,189.358191,893.828125,97.775
745, 11:24:09,65.878827,189.332978,894.003551,97.775
746, 11:24:09,65.908499,189.516217,894.78196,97.775
747, 11:24:09,66.008404,189.906842,896.477983,97.775
748, 11:24:09,66.005761,189.981771,896.024148,97.775
749, 11:24:09,66.009233,189.973248,896.299716,97.775
750, 11:24:10,65.965238,189.850734,895.556108,97.775
751, 11:24:10,66.012232,190.001184,895.816761,97.775
752, 11:24:10,66.093277,190.35464,897.497159,97.775
753, 11:24:10,66.203559,190.78634,899.090199,97.775
754, 11:24:10,66.328835,191.323627,900.694602,97.775
755, 11:24:10,66.447719,191.960109,902.203835,97.775
756, 11:24:10,66.58503,192.571851,904.53054,97.775
757, 11:24:10,66.625039,193.042732,905.449574,97.775
758, 11:24:10,66.702296,193.394768,906.004972,97.775
759, 11:24:10,66.747277,193.822325,906.911222,97.775
760, 11:24:10,66.809856,194.298887,908.304688,97.775
761, 11:24:10,66.912169,194.813684,909.96733,97.775
762, 11:24:10,66.980193,195.180161,910.978693,97.775
763, 11:24:10,67.052754,195.768584,912.790483,97.775
764, 11:24:10,67.136679,196.136837,913.465909,97.775
765, 11:24:10,67.003906,195.807173,911.78054,97.775
766, 11:24:10,66.484888,193.385062,902.997869,97.775
767, 11:24:10,65.967132,190.576113,895.894176,97.775
768, 11:24:10,65.719421,189.020005,891.833097,97.775
769, 11:24:10,65.609888,188.291312,890.756392,97.775
770, 11:24:10,65.644847,188.34884,890.43679,97.775
771, 11:24:10,65.679885,188.45206,890.698153,97.775
772, 11:24:10,65.858231,189.125355,893.314631,97.775
773, 11:24:10,65.941761,189.574811,894.869318,97.775
774, 11:24:10,65.998619,189.899266,895.65696,97.775
775, 11:24:10,65.939591,189.978812,895.722301,97.775
776, 11:24:10,65.911222,189.739347,894.461648,97.775
777, 11:24:10,65.948351,189.840791,894.712358,97.775
778, 11:24:10,66.038984,190.097064,896.139205,97.775
779, 11:24:10,66.162208,190.687855,897.990767,97.775
780, 11:24:11,66.272214,191.242306,899.433949,97.8
781, 11:24:11,66.397412,191.911458,901.721591,97.8
782, 11:24:11,66.512705,192.512547,903.62642,97.8
783, 11:24:11,66.578283,192.962121,904.630682,97.8
784, 11:24:11,66.677951,193.577888,906.552557,97.8
785, 11:24:11,66.741793,193.921875,907.048295,97.8
786, 11:24:11,66.84663,194.54652,908.645597,97.8
787, 11:24:11,66.898516,194.909091,910.068182,97.8
788, 11:24:11,67.029159,195.438329,911.601562,97.8
789, 11:24:11,67.093592,195.961174,912.639205,97.8
790, 11:24:11,67.164575,196.379143,913.766335,97.8
791, 11:24:11,67.287011,197.036222,915.836648,97.8
792, 11:24:11,67.157039,196.877841,914.045455,97.8
793, 11:24:11,66.591027,194.310488,905.803267,97.8
794, 11:24:11,65.964015,190.869792,895.9375,97.8
795, 11:24:11,65.581005,188.461293,889.654119,97.8
796, 11:24:11,65.386758,187.472301,886.941761,97.8
797, 11:24:11,65.323272,186.998698,886.37571,97.8
798, 11:24:11,65.334122,187.118845,887.565341,97.8
799, 11:24:11,65.345604,187.122988,887.132812,97.8
800, 11:24:11,65.459754,187.606061,888.852273,97.8
801, 11:24:11,65.539536,188.007812,890.086648,97.8
802, 11:24:11,65.572285,188.15483,890.338068,97.8
803, 11:24:11,65.60176,188.207268,890.527699,97.8
804, 11:24:11,65.588502,188.211056,890.277699,97.8
805, 11:24:11,65.684462,188.577533,892.394176,97.8
806, 11:24:11,65.726128,188.921757,892.320312,97.8
807, 11:24:11,65.905421,189.541075,894.794744,97.8
808, 11:24:11,66.071299,190.263139,896.729403,97.8
809, 11:24:11,66.135811,190.629025,897.848011,97.8
810, 11:24:12,66.307055,191.414062,900.072443,97.8
811, 11:24:12,66.352391,191.845052,900.928267,97.8
812, 11:24:12,66.499527,192.477273,903.727273,97.8
813, 11:24:12,66.561711,192.951705,904.417614,97.8
814, 11:24:12,66.633049,193.42661,905.704545,97.8
815, 11:24:12,66.731416,193.938565,907.696733,97.8
816, 11:24:12,66.799006,194.349669,907.839489,97.8
817, 11:24:12,66.923651,195.108073,910.787642,97.8
818, 11:24:12,67.00797,195.603456,911.541193,97.8
819, 11:24:12,67.107797,196.16714,913.102273,97.8
820, 11:24:12,67.191367,196.662642,914.671875,97.8
821, 11:24:12,67.270005,197.159446,916.422585,97.8
822, 11:24:12,67.418995,197.8067,918.462358,97.8
823, 11:24:12,67.413826,198.233428,918.6875,97.8
824, 11:24:12,67.521899,198.803385,919.891335,97.8
825, 11:24:12,67.596551,199.13009,920.723722,97.8
826, 11:24:12,67.712634,199.832505,922.995028,97.8
827, 11:24:12,67.647333,199.700994,921.413352,97.8
828, 11:24:12,66.958294,196.963423,911.56179,97.8
829, 11:24:12,66.192235,192.9375,900.727273,97.8
830, 11:24:12,65.70206,189.683357,891.233665,97.8
831, 11:24:12,65.446654,188.212595,887.869318,97.8
832, 11:24:12,65.402304,187.606534,886.926136,97.8
833, 11:24:12,65.343908,187.355587,887.420455,97.8
834, 11:24:12,65.297388,187.242069,886.026278,97.8
835, 11:24:12,65.325245,187.27545,887.300426,97.8
836, 11:24:12,65.39461,187.613755,887.62571,97.8
837, 11:24:12,65.420139,187.752367,887.801136,97.8
838, 11:24:12,65.430556,187.888258,887.832386,97.8
839, 11:24:12,65.459991,187.922112,888.896307,97.8
840, 11:24:13,65.53488,188.176136,890.051136,97.8
841, 11:24:13,65.670139,188.609848,892.275568,97.8
842, 11:24:13,65.753275,189.015033,892.615767,97.8
843, 11:24:13,65.906368,189.708215,894.737926,97.8
844, 11:24:13,66.032118,190.348722,896.683239,97.8
845, 11:24:13,66.159643,190.935369,898.461648,97.8
846, 11:24:13,66.244121,191.502249,899.254972,97.8
847, 11:24:13,66.366517,192.12133,901.901278,97.8
848, 11:24:13,66.448943,192.594934,902.362216,97.8
849, 11:24:13,66.533104,193.015507,904.504972,97.8
850, 11:24:13,66.591264,193.52758,905.102983,97.8
851, 11:24:13,66.696496,194.122159,907.258523,97.8
852, 11:24:13,66.808436,194.708452,908.727983,97.8
853, 11:24:13,66.888849,195.215791,910.425426,97.8
854, 11:24:13,66.982481,195.827652,911.690341,97.8
855, 11:24:13,67.052083,196.359848,912.5,97.8
856, 11:24:13,67.13226,196.757102,914.130682,97.8
857, 11:24:13,67.247593,197.455374,916.362926,97.8
858, 11:24:13,67.323666,197.90992,917.783381,97.8
859, 11:24:13,67.475379,198.568182,920.196023,97.8
860, 11:24:13,67.327336,198.22822,917.769886,97.8
861, 11:24:13,66.624487,195.48473,907.166903,97.8
862, 11:24:13,65.956242,191.660393,896.953835,97.8
863, 11:24:13,65.528567,189.062973,890.036932,97.8
864, 11:24:13,65.37642,187.804924,887.0,97.8
865, 11:24:13,65.306226,187.358546,886.489347,97.8
866, 11:24:13,65.320234,187.450758,886.823864,97.8
867, 11:24:13,65.323548,187.458807,887.110795,97.8
868, 11:24:13,65.414615,187.920455,888.036932,97.8
869, 11:24:13,65.473801,188.236269,889.545455,97.8
870, 11:24:14,65.48398,188.366714,889.004261,97.825
871, 11:24:14,65.467764,188.323272,889.308949,97.825
872, 11:24:14,65.473406,188.374763,889.879261,97.825
873, 11:24:14,65.505208,188.441288,889.457386,97.825
874, 11:24:14,65.575087,188.856416,890.053267,97.825
875, 11:24:14,65.757655,189.525331,893.598011,97.825
876, 11:24:14,65.839844,190.034683,894.81321,97.825
877, 11:24:14,65.977233,190.72242,897.041903,97.825
878, 11:24:14,66.111348,191.28196,898.589489,97.825
879, 11:24:14,66.290562,192.050663,901.355114,97.825
880, 11:24:14,66.420573,192.761719,902.962358,97.825
881, 11:24:14,66.425584,193.116241,902.987216,97.825
882, 11:24:14,66.558554,193.789773,905.215909,97.825
883, 11:24:14,66.624171,194.213897,906.482244,97.825
884, 11:24:14,66.746962,194.857836,908.189631,97.825
885, 11:24:14,66.743766,195.085464,908.703125,97.825
886, 11:24:14,66.361308,193.564512,902.012074,97.825
887, 11:24:14,65.736861,190.47242,893.294744,97.825
888, 11:24:14,65.217961,187.728693,885.221591,97.825
889, 11:24:14,64.988518,186.411577,881.895597,97.825
890, 11:24:14,64.911616,185.935606,880.835227,97.825
891, 11:24:14,64.934777,185.989938,882.044744,97.825
892, 11:24:14,65.00947,186.308239,883.326705,97.825
893, 11:24:14,65.172664,187.035985,885.53125,97.825
894, 11:24:14,65.229246,187.534801,886.262784,97.825
895, 11:24:14,65.24274,187.69697,886.454545,97.825
896, 11:24:14,65.237334,187.665601,886.144176,97.825
897, 11:24:14,65.22526,187.642164,885.764915,97.825
898, 11:24:14,65.302794,187.905066,887.56108,97.825
899, 11:24:14,65.38739,188.383759,888.569602,97.825
900, 11:24:15,65.481534,188.838068,890.377841,97.825
901, 11:24:15,65.64682,189.543679,892.139915,97.825
902, 11:24:15,65.756155,190.163352,893.681818,97.825
903, 11:24:15,65.882221,190.857363,895.425426,97.825
904, 11:24:15,65.951152,191.418324,896.262784,97.825
905, 11:24:15,66.085069,192.091856,899.056818,97.825
906, 11:24:15,66.142401,192.502012,900.497869,97.825
907, 11:24:15,66.280895,193.099313,902.595881,97.825
908, 11:24:15,66.346354,193.535748,903.132102,97.825
909, 11:24:15,66.403527,193.998461,904.479403,97.825
910, 11:24:15,66.506274,194.632931,905.888494,97.825
911, 11:24:15,66.609651,195.132931,907.669744,97.825
912, 11:24:15,66.702375,195.783262,908.722301,97.825
913, 11:24:15,66.790325,196.236032,910.231534,97.825
914, 11:24:15,66.91059,196.84446,912.103693,97.825
915, 11:24:15,67.032868,197.47455,914.543324,97.825
916, 11:24:15,67.07777,197.91276,914.933949,97.825
917, 11:24:15,66.952257,197.572206,913.223011,97.825
918, 11:24:15,66.146859,194.330256,901.62642,97.825
919, 11:24:15,65.406132,190.187145,890.230824,97.825
920, 11:24:15,64.870936,187.162997,881.702415,97.825
921, 11:24:15,64.656368,185.712476,879.129972,97.825
922, 11:24:15,64.562618,185.158973,876.948153,97.825
923, 11:24:15,64.545139,185.084754,877.548295,97.825
924, 11:24:15,64.539891,185.036813,877.479403,97.825
925, 11:24:15,64.575205,185.180634,877.580966,97.825
926, 11:24:15,64.680595,185.582031,879.162642,97.825
927, 11:24:15,64.70352,185.746449,880.274148,97.825
928, 11:24:15,64.715317,185.866596,879.449574,97.825
929, 11:24:15,64.705453,185.872514,879.916903,97.825
930, 11:24:16,64.72092,186.071378,879.993608,97.825
931, 11:24:16,64.867109,186.599432,882.107955,97.825
932, 11:24:16,64.954269,187.104759,882.801847,97.825
933, 11:24:16,65.137232,187.864347,886.629261,97.825
934, 11:24:16,65.291312,188.578954,887.510653,97.825
935, 11:24:16,65.444681,189.297112,890.84517,97.825
936, 11:24:16,65.561198,189.942116,891.823153,97.825
937, 11:24:16,65.647096,190.530777,892.894886,97.825
938, 11:24:16,65.776594,191.084991,895.640625,97.825
939, 11:24:16,65.829072,191.568655,896.127841,97.825
940, 11:24:16,65.939118,192.194247,897.767756,97.825
941, 11:24:16,66.023398,192.648793,899.176847,97.825
942, 11:24:16,66.163116,193.288116,901.169034,97.825
943, 11:24:16,66.267598,193.946259,903.072443,97.825
944, 11:24:16,66.243687,194.062027,903.008523,97.825
945, 11:24:16,65.717645,191.866951,894.295455,97.825
946, 11:24:16,64.930477,188.184896,882.791193,97.825
947, 11:24:16,64.476839,185.403527,875.93821,97.825
948, 11:24:16,64.208649,183.930871,871.696023,97.825
949, 11:24:16,64.181897,183.642282,871.27983,97.825
950, 11:24:16,64.143348,183.52474,871.290483,97.825
951, 11:24:16,64.170297,183.590909,872.309659,97.825
952, 11:24:16,64.252723,184.011482,873.213778,97.825
953, 11:24:16,64.361308,184.482126,875.324574,97.825
954, 11:24:16,64.410432,184.748816,875.433239,97.825
955, 11:24:16,64.377604,184.751184,875.151989,97.825
956, 11:24:16,64.370305,184.807884,875.441051,97.825
957, 11:24:16,64.409604,184.934304,875.580256,97.825
958, 11:24:16,64.49566,185.350142,877.06108,97.825
959, 11:24:16,64.641335,185.9491,879.362216,97.825
960, 11:24:17,64.759667,186.68383,881.381392,97.825
961, 11:24:17,64.889402,187.275213,882.560369,97.825
962, 11:24:17,64.987966,187.856416,883.808949,97.825
963, 11:24:17,65.134667,188.551255,886.466619,97.825
964, 11:24:17,65.232836,189.043205,887.901278,97.825
965, 11:24:17,65.318813,189.560606,889.448864,97.825
966, 11:24:17,65.417574,190.155185,890.550426,97.825
967, 11:24:17,65.487847,190.514678,891.730114,97.825
968, 11:24:17,65.605982,191.231771,894.018466,97.825
969, 11:24:17,65.675387,191.656842,894.995028,97.825
970, 11:24:17,65.773359,192.190814,895.369318,97.825
971, 11:24:17,65.913392,192.877959,897.975142,97.825
972, 11:24:17,65.994634,193.399148,899.053977,97.825
973, 11:24:17,66.094658,194.078007,901.144176,97.825
974, 11:24:17,66.205453,194.540601,903.192472,97.825
975, 11:24:17,66.296323,195.188684,905.115057,97.825
976, 11:24:17,66.383168,195.748935,905.871449,97.825
977, 11:24:17,66.488321,196.119318,907.684659,97.825
978, 11:24:17,66.582544,196.776989,909.198864,97.825
979, 11:24:17,66.678504,197.213542,910.488636,97.825
980, 11:24:17,66.607126,197.184541,909.791903,97.825
981, 11:24:17,65.878038,194.341974,898.540483,97.825
982, 11:24:17,65.098879,190.352983,887.830966,97.825
983, 11:24:17,64.589331,186.975852,878.963068,97.825
984, 11:24:17,64.405264,185.512192,874.774858,97.825
985, 11:24:17,64.337871,185.044863,874.510653,97.825
986, 11:24:17,64.322719,185.010772,874.897017,97.825
987, 11:24:17,64.367503,185.121922,875.265625,97.825
988, 11:24:17,64.421954,185.502604,876.490057,97.825
989, 11:24:17,64.526002,185.991832,878.607244,97.825
990, 11:24:18,64.463068,185.901042,877.085227,97.825
991, 11:24:18,64.463344,185.785866,877.252131,97.825
992, 11:24:18,64.413865,185.657315,876.293324,97.825
993, 11:24:18,64.444642,185.750118,876.864347,97.825
994, 11:24:18,64.537011,186.22893,878.59233,97.825
995, 11:24:18,64.655421,186.667495,879.985085,97.825
996, 11:24:18,64.815459,187.372988,881.661222,97.825
997, 11:24:18,64.906763,187.86991,883.551847,97.825
998, 11:24:18,65.038234,188.503906,885.066051,97.825
999, 11:24:18,65.153922,189.072562,886.742188,97.825
1000, 11:24:18,65.199377,189.510535,887.273438,97.825
1001, 11:24:18,65.313881,190.094579,888.87429,97.825
1002, 11:24:18,65.367385,190.502723,890.050426,97.825
1003, 11:24:18,65.455058,190.958452,891.713778,97.825
1004, 11:24:18,65.542101,191.47526,893.266335,97.825
1005, 11:24:18,65.657513,192.043561,894.559659,97.825
1006, 11:24:18,65.659485,192.221354,894.683239,97.825
1007, 11:24:18,65.236229,190.542969,888.604403,97.825
1008, 11:24:18,64.60101,187.191288,878.534091,97.825
1009, 11:24:18,64.067906,184.354285,870.227983,97.825
1010, 11:24:18,63.86699,183.011482,867.21946,97.825
1011, 11:24:18,63.81617,182.663944,867.477983,97.825
1012, 11:24:18,63.861151,182.794152,867.597301,97.825
1013, 11:24:18,63.934541,183.164891,869.557528,97.825
1014, 11:24:18,64.117898,183.952178,871.247159,97.825
1015, 11:24:18,64.217606,184.486624,873.240767,97.825
1016, 11:24:18,64.190341,184.557765,872.735795,97.825
1017, 11:24:18,64.181621,184.56759,872.868608,97.825
1018, 11:24:18,64.161695,184.352036,871.916193,97.825
1019, 11:24:18,64.215278,184.625,872.826705,97.825
1020, 11:24:19,64.352273,185.144413,875.380682,97.825
1021, 11:24:19,64.457307,185.743608,876.850852,97.825
1022, 11:24:19,64.597498,186.396188,878.533381,97.825
1023, 11:24:19,64.679293,187.070076,879.417614,97.825
1024, 11:24:19,64.831005,187.787997,882.139915,97.825
1025, 11:24:19,64.924479,188.230824,883.578125,97.825
1026, 11:24:19,65.048256,188.837003,884.814631,97.825
1027, 11:24:19,65.095881,189.192945,885.441761,97.825
1028, 11:24:19,65.232442,189.823745,887.916903,97.825
1029, 11:24:19,65.28563,190.230469,889.235085,97.825
1030, 11:24:19,65.376697,190.746094,890.519176,97.825
1031, 11:24:19,65.474116,191.219697,892.261364,97.825
1032, 11:24:19,65.523438,191.629498,892.484375,97.825
1033, 11:24:19,65.651436,192.307055,894.433239,97.825
1034, 11:24:19,65.718868,192.757457,895.871449,97.825
1035, 11:24:19,65.853733,193.417732,898.341619,97.825
1036, 11:24:19,65.93462,193.899976,898.908381,97.825
1037, 11:24:19,65.625237,192.94768,894.950284,97.825
1038, 11:24:19,64.815933,189.166075,882.394176,97.825
1039, 11:24:19,64.089331,184.998106,871.536932,97.825
1040, 11:24:19,63.670612,182.476326,864.278409,97.825
1041, 11:24:19,63.456242,181.324692,862.047585,97.825
1042, 11:24:19,63.436592,181.156368,861.642756,97.825
1043, 11:24:19,63.40187,181.05741,861.321733,97.825
1044, 11:24:19,63.397175,180.995028,860.924716,97.825
1045, 11:24:19,63.508759,181.435369,863.830966,97.825
1046, 11:24:19,63.577336,181.806818,863.764205,97.825
1047, 11:24:19,63.623264,182.056818,864.911932,97.825
1048, 11:24:19,63.623935,182.078717,864.389915,97.825
1049, 11:24:19,63.648438,182.152225,865.401989,97.825
1050, 11:24:20,63.746094,182.522846,866.088778,97.825
1051, 11:24:20,63.817235,182.894413,867.201705,97.825
1052, 11:24:20,63.991477,183.625947,870.477273,97.825
1053, 11:24:20,64.096551,184.110204,871.15554,97.825
1054, 11:24:20,64.195944,184.890388,872.134943,97.825
1055, 11:24:20,64.361269,185.476799,875.534091,97.825
1056, 11:24:20,64.424242,185.987689,876.164773,97.825
1057, 11:24:20,64.545494,186.512902,878.074574,97.825
1058, 11:24:20,64.638928,186.928149,878.68821,97.825
1059, 11:24:20,64.735204,187.448982,881.330256,97.825
1060, 11:24:20,64.881629,188.041667,883.241477,97.825
1061, 11:24:20,64.918837,188.432173,883.78054,97.825
1062, 11:24:20,65.058752,189.028054,885.705256,97.825
1063, 11:24:20,65.09959,189.500947,886.397727,97.825
1064, 11:24:20,65.217172,190.140625,887.698864,97.825
1065, 11:24:20,65.303267,190.57268,889.339489,97.825
1066, 11:24:20,65.398793,191.073745,890.979403,97.825
1067, 11:24:20,65.472222,191.702178,892.213068,97.825
1068, 11:24:20,65.534762,192.040365,892.904119,97.825
1069, 11:24:20,65.02983,190.159091,886.048295,97.825
1070, 11:24:20,64.217606,185.982836,873.456676,97.825
1071, 11:24:20,63.618332,182.51456,864.087358,97.825
1072, 11:24:20,63.273595,180.607244,858.348011,97.825
1073, 11:24:20,63.141138,179.893111,857.492188,97.825
1074, 11:24:20,63.109809,179.823745,857.004972,97.825
1075, 11:24:20,63.097577,179.739702,857.293324,97.825
1076, 11:24:20,63.173414,179.959635,858.422585,97.825
1077, 11:24:20,63.299953,180.495975,860.62358,97.825
1078, 11:24:20,63.317708,180.75142,860.889205,97.825
1079, 11:24:20,63.387863,181.024384,861.294034,97.825
1080, 11:24:21,63.380208,181.058712,860.65625,97.8
1081, 11:24:21,63.462713,181.271662,862.860085,97.8
1082, 11:24:21,63.54727,181.684422,863.887784,97.8
1083, 11:24:21,63.687027,182.327178,865.227273,97.8
1084, 11:24:21,63.810961,182.948982,867.412642,97.8
1085, 11:24:21,63.894492,183.558002,868.572443,97.8
1086, 11:24:21,64.093632,184.303149,870.952415,97.8
1087, 11:24:21,64.194839,184.778172,873.024148,97.8
1088, 11:24:21,64.337674,185.545691,875.024148,97.8
1089, 11:24:21,64.383168,185.968632,875.726562,97.8
1090, 11:24:21,64.525765,186.580137,877.901278,97.8
1091, 11:24:21,64.621725,187.04794,879.355824,97.8
1092, 11:24:21,64.710859,187.492898,880.301136,97.8
1093, 11:24:21,64.821181,188.055398,882.144886,97.8
1094, 11:24:21,64.916588,188.608191,883.90767,97.8
1095, 11:24:21,65.035275,189.276752,885.09517,97.8
1096, 11:24:21,64.99057,189.145005,884.020597,97.8
1097, 11:24:21,64.399818,186.714607,875.566051,97.8
1098, 11:24:21,63.685172,183.101444,865.284801,97.8
1099, 11:24:21,63.166982,180.328125,858.227273,97.8
1100, 11:24:21,62.977943,179.295573,854.236506,97.8
1101, 11:24:21,62.932844,178.989347,855.009943,97.8
1102, 11:24:21,62.947522,179.109612,855.634943,97.8
1103, 11:24:21,63.001894,179.401515,856.670455,97.8
1104, 11:24:21,63.120581,179.908617,858.428977,97.8
1105, 11:24:21,63.282276,180.558002,860.492898,97.8
1106, 11:24:21,63.28709,180.703125,859.764205,97.8
1107, 11:24:21,63.276436,180.784801,860.981534,97.8
1108, 11:24:21,63.319129,180.859848,860.818182,97.8
1109, 11:24:21,63.388928,181.119437,861.580256,97.8
1110, 11:24:22,63.506432,181.622514,863.172585,97.8
1111, 11:24:22,63.646386,182.220407,864.933239,97.8
1112, 11:24:22,63.828007,183.001539,867.727983,97.8
1113, 11:24:22,63.931424,183.553741,869.359375,97.8
1114, 11:24:22,64.028843,184.114938,870.075994,97.8
1115, 11:24:22,64.10101,184.730114,871.28125,97.8
1116, 11:24:22,64.197206,185.204309,872.947443,97.8
1117, 11:24:22,64.342448,185.761245,875.885653,97.8
1118, 11:24:22,64.421678,186.220052,876.695312,97.8
1119, 11:24:22,64.535788,186.772609,878.294744,97.8
1120, 11:24:22,64.629419,187.236269,879.125,97.8
1121, 11:24:22,64.694563,187.642874,880.425426,97.8
1122, 11:24:22,64.813763,188.28267,882.426136,97.8
1123, 11:24:22,64.862295,188.676373,883.475852,97.8
1124, 11:24:22,64.984217,189.29214,884.53125,97.8
1125, 11:24:22,65.025134,189.656368,885.418324,97.8
1126, 11:24:22,65.163944,190.352154,887.703835,97.8
1127, 11:24:22,65.265309,190.852273,889.073864,97.8
1128, 11:24:22,65.331321,191.271425,890.463778,97.8
1129, 11:24:22,65.100655,190.604995,887.147017,97.8
1130, 11:24:22,64.334083,187.119673,875.476562,97.8
1131, 11:24:22,63.632378,183.25509,865.237926,97.8
1132, 11:24:22,63.190183,180.706439,857.122159,97.8
1133, 11:24:22,63.050545,179.775213,856.37571,97.8
1134, 11:24:22,63.028843,179.606889,856.450994,97.8
1135, 11:24:22,63.030816,179.708452,856.713778,97.8
1136, 11:24:22,63.10614,180.088305,857.660511,97.8
1137, 11:24:22,63.256905,180.644768,860.573153,97.8
1138, 11:24:22,63.318419,180.949574,860.490057,97.8
1139, 11:24:22,63.320865,181.017519,861.227273,97.8
1140, 11:24:23,63.288944,180.931226,860.058949,97.8
1141, 11:24:23,63.305477,180.950521,860.674716,97.8
1142, 11:24:23,63.342764,181.150923,861.24929,97.8
1143, 11:24:23,63.491201,181.708452,863.966619,97.8
1144, 11:24:23,63.607402,182.340199,864.447443,97.8
1145, 11:24:23,63.743568,182.915365,866.441051,97.8
1146, 11:24:23,63.852707,183.606416,868.121449,97.8
1147, 11:24:23,63.935251,184.085582,869.945312,97.8
1148, 11:24:23,64.069602,184.67803,871.494318,97.8
1149, 11:24:23,64.150016,185.043324,872.615057,97.8
1150, 11:24:23,64.27474,185.57706,874.740767,97.8
1151, 11:24:23,64.347538,186.070549,875.644886,97.8
1152, 11:24:23,64.43387,186.520833,876.284091,97.8
1153, 11:24:23,64.485559,186.838305,877.56108,97.8
1154, 11:24:23,64.026831,185.084754,870.534091,97.8
1155, 11:24:23,63.342053,181.848603,860.205256,97.8
1156, 11:24:23,62.789654,178.888376,852.716619,97.8
1157, 11:24:23,62.493095,177.4433,848.34446,97.8
1158, 11:24:23,62.405777,176.983428,847.329545,97.8
1159, 11:24:23,62.425387,177.046046,848.049006,97.8
1160, 11:24:23,62.468434,177.27983,849.019886,97.8
1161, 11:24:23,62.659051,178.039654,852.53054,97.8
1162, 11:24:23,62.817077,178.82197,853.772727,97.8
1163, 11:24:23,62.861585,179.105114,853.303977,97.8
1164, 11:24:23,62.902975,179.230232,854.779119,97.8
1165, 11:24:23,62.988794,179.406723,856.275568,97.8
1166, 11:24:23,63.025884,179.622633,856.085227,97.8
1167, 11:24:23,63.145557,180.100497,857.93821,97.8
1168, 11:24:23,63.28776,180.720289,860.432528,97.8
1169, 11:24:23,63.488715,181.552794,863.455966,97.8
1170, 11:24:24,63.608112,182.185133,864.275568,97.775
1171, 11:24:24,63.76673,182.987689,866.389205,97.775
1172, 11:24:24,63.843671,183.513968,867.973011,97.775
1173, 11:24:24,63.996488,184.182647,870.371449,97.775
1174, 11:24:24,64.103378,184.679451,871.943182,97.775
1175, 11:24:24,64.246765,185.263494,873.646307,97.775
1176, 11:24:24,64.349392,185.85026,874.493608,97.775
1177, 11:24:24,64.438368,186.249763,876.231534,97.775
1178, 11:24:24,64.543561,186.939394,877.5625,97.775
1179, 11:24:24,64.619042,187.404948,878.801847,97.775
1180, 11:24:24,64.77474,188.149503,881.308949,97.775
1181, 11:24:24,64.892085,188.681463,883.012074,97.775
1182, 11:24:24,64.964212,189.289418,884.026278,97.775
1183, 11:24:24,65.114583,189.949337,886.809659,97.775
1184, 11:24:24,65.222656,190.520241,888.272017,97.775
1185, 11:24:24,65.303938,191.070904,889.453835,97.775
1186, 11:24:24,65.11336,190.618963,886.810369,97.775
1187, 11:24:24,64.360283,187.162287,876.169744,97.775
1188, 11:24:24,63.576862,182.943182,863.761364,97.775
1189, 11:24:24,63.098011,180.077652,856.590909,97.775
1190, 11:24:24,62.919152,178.962476,853.433949,97.775
1191, 11:24:24,62.84154,178.612689,852.923295,97.775
1192, 11:24:24,62.825758,178.562027,852.5625,97.775
1193, 11:24:24,62.820628,178.591146,852.862216,97.775
1194, 11:24:24,62.870384,178.855942,853.274858,97.775
1195, 11:24:24,63.005485,179.353575,855.325994,97.775
1196, 11:24:24,63.024384,179.504025,855.109375,97.775
1197, 11:24:24,63.052438,179.664891,856.37571,97.775
1198, 11:24:24,63.082939,179.781487,856.018466,97.775
1199, 11:24:24,63.129853,179.912287,857.06179,97.775
1200, 11:24:25,63.25,180.414299,858.735795,97.775
1201, 11:24:25,63.368647,180.994673,860.65554,97.775
1202, 11:24:25,63.564078,181.745265,863.5,97.775
1203, 11:24:25,63.676491,182.320668,864.90696,97.775
1204, 11:24:25,63.837279,183.03125,867.071023,97.775
1205, 11:24:25,63.96441,183.620502,868.768466,97.775
1206, 11:24:25,64.019295,184.111861,869.943892,97.775
1207, 11:24:25,64.17732,184.791903,872.018466,97.775
1208, 11:24:25,64.273398,185.18099,872.077415,97.775
1209, 11:24:25,64.323509,185.788707,873.635653,97.775
1210, 11:24:25,64.467685,186.365649,876.708097,97.775
1211, 11:24:25,64.558673,186.85973,877.902699,97.775
1212, 11:24:25,64.677833,187.345526,878.635653,97.775
1213, 11:24:25,64.794665,188.045928,881.40625,97.775
1214, 11:24:25,64.899266,188.579427,882.490767,97.775
1215, 11:24:25,64.967251,189.015862,883.370739,97.775
1216, 11:24:25,65.105469,189.756274,885.307528,97.775
1217, 11:24:25,65.12867,190.033262,886.389915,97.775
1218, 11:24:25,64.854167,189.087595,882.4375,97.775
1219, 11:24:25,64.098288,185.60973,871.323153,97.775
1220, 11:24:25,63.50655,182.090199,861.328125,97.775
1221, 11:24:25,63.140191,180.075876,856.495028,97.775
1222, 11:24:25,63.039378,179.368134,854.34517,97.775
1223, 11:24:25,63.023003,179.285866,854.857244,97.775
1224, 11:24:25,63.00434,179.299479,854.941761,97.775
1225, 11:24:25,63.080848,179.572088,855.870028,97.775
1226, 11:24:25,63.189907,180.08724,857.628551,97.775
1227, 11:24:25,63.213976,180.263139,858.331676,97.775
1228, 11:24:25,63.267203,180.44839,858.25,97.775
1229, 11:24:25,63.239149,180.437618,858.59446,97.775
1230, 11:24:26,63.28346,180.585701,859.088068,97.775
1231, 11:24:26,63.359257,180.934777,860.418324,97.775
1232, 11:24:26,63.452217,181.418679,861.307528,97.775
1233, 11:24:26,63.611703,182.058594,863.516335,97.775
1234, 11:24:26,63.742306,182.619437,865.117188,97.775
1235, 11:24:26,63.853417,183.366596,866.929688,97.775
1236, 11:24:26,63.97309,183.852036,868.950284,97.775
1237, 11:24:26,64.060882,184.342211,870.513494,97.775
1238, 11:24:26,64.177715,184.848958,871.897727,97.775
1239, 11:24:26,64.203756,185.12642,872.110795,97.775
1240, 11:24:26,64.328796,185.76669,872.867188,97.775
1241, 11:24:26,64.434422,186.138021,874.646307,97.775
1242, 11:24:26,64.543442,186.783736,877.159801,97.775
1243, 11:24:26,64.703007,187.475971,879.495028,97.775
1244, 11:24:26,64.617109,187.361742,878.309659,97.775
1245, 11:24:26,64.116911,185.350734,869.911222,97.775
1246, 11:24:26,63.514481,182.016454,860.68679,97.775
1247, 11:24:26,63.087397,179.942116,855.584517,97.775
1248, 11:24:26,62.947719,179.014086,853.652699,97.775
1249, 11:24:26,62.940459,178.904711,853.200994,97.775
1250, 11:24:26,62.967606,179.08795,853.715199,97.775
1251, 11:24:26,63.07773,179.571733,855.56108,97.775
1252, 11:24:26,63.221394,180.41134,857.666903,97.775
1253, 11:24:26,63.283065,180.658381,858.879261,97.775
1254, 11:24:26,63.299519,180.77545,858.825994,97.775
1255, 11:24:26,63.293679,180.743253,859.002131,97.775
1256, 11:24:26,63.30161,180.778883,859.019886,97.775
1257, 11:24:26,63.377604,180.982718,859.745739,97.775
1258, 11:24:26,63.482086,181.471354,861.387784,97.775
1259, 11:24:26,63.634904,182.122514,864.470881,97.775
1260, 11:24:27,63.72459,182.61553,864.28125,97.8
1261, 11:24:27,63.886679,183.375473,867.21875,97.8
1262, 11:24:27,63.96512,184.0,868.678977,97.8
1263, 11:24:27,64.060567,184.412287,869.979403,97.8
1264, 11:24:27,64.171007,184.968513,871.427557,97.8
1265, 11:24:27,64.231771,185.307055,872.328125,97.8
1266, 11:24:27,64.347775,185.843987,874.058239,97.8
1267, 11:24:27,64.414339,186.245384,874.56321,97.8
1268, 11:24:27,64.572364,186.876657,877.34233,97.8
1269, 11:24:27,64.658381,187.403172,878.59517,97.8
1270, 11:24:27,64.706637,187.841974,879.455256,97.8
1271, 11:24:27,64.409564,186.809186,875.346591,97.8
1272, 11:24:27,63.725497,183.544863,864.297585,97.8
1273, 11:24:27,63.155145,180.376894,856.65625,97.8
1274, 11:24:27,62.772135,178.578717,850.855824,97.8
1275, 11:24:27,62.714331,178.069602,850.599432,97.8
1276, 11:24:27,62.723327,178.088542,850.403409,97.8
1277, 11:24:27,62.728378,178.107955,850.528409,97.8
1278, 11:24:27,62.835109,178.643584,852.753551,97.8
1279, 11:24:27,62.95202,179.169034,854.613636,97.8
1280, 11:24:27,63.014402,179.534683,855.529119,97.8
1281, 11:24:27,62.997988,179.537997,855.276278,97.8
1282, 11:24:27,63.017874,179.647846,855.699574,97.8
1283, 11:24:27,63.035866,179.725024,856.026278,97.8
1284, 11:24:27,63.113873,179.985559,856.544034,97.8
1285, 11:24:27,63.294705,180.745384,859.15696,97.8
1286, 11:24:27,63.395478,181.232836,860.743608,97.8
1287, 11:24:27,63.571733,181.982718,862.637784,97.8
1288, 11:24:27,63.675387,182.518584,864.148438,97.8
1289, 11:24:27,63.829901,183.206558,867.057528,97.8
1290, 11:24:28,63.901397,183.707505,868.361506,97.8
1291, 11:24:28,63.991398,184.182055,869.134943,97.8
1292, 11:24:28,64.112098,184.796993,871.341619,97.8
1293, 11:24:28,64.198509,185.250355,871.897017,97.8
1294, 11:24:28,64.307805,185.84813,873.483665,97.8
1295, 11:24:28,64.406408,186.257576,875.366477,97.8
1296, 11:24:28,64.54581,186.956084,877.134233,97.8
1297, 11:24:28,64.666982,187.505208,879.346591,97.8
1298, 11:24:28,64.726839,188.030421,879.830256,97.8
1299, 11:24:28,64.848958,188.648674,882.09375,97.8
1300, 11:24:28,64.90187,189.178622,882.773438,97.8
1301, 11:24:28,65.051334,189.894531,885.051847,97.8
1302, 11:24:28,65.070668,190.293916,885.283381,97.8
1303, 11:24:28,64.711135,188.772135,879.868608,97.8
1304, 11:24:28,63.848761,184.737571,867.817472,97.8
1305, 11:24:28,63.136245,180.578243,856.963778,97.8
1306, 11:24:28,62.723248,178.422585,850.583807,97.8
1307, 11:24:28,62.56759,177.511955,848.122869,97.8
1308, 11:24:28,62.472775,177.051373,847.041193,97.8
1309, 11:24:28,62.399661,176.851444,846.21946,97.8
1310, 11:24:28,62.414497,176.881747,846.287642,97.8
1311, 11:24:28,62.536735,177.450166,849.604403,97.8
1312, 11:24:28,62.612453,177.835464,849.973011,97.8
1313, 11:24:28,62.712397,178.157552,851.732244,97.8
1314, 11:24:28,62.726365,178.242069,851.699574,97.8
1315, 11:24:28,62.768229,178.386127,852.737216,97.8
1316, 11:24:28,62.881787,178.850379,853.392045,97.8
1317, 11:24:28,62.99858,179.331913,856.028409,97.8
1318, 11:24:28,63.155698,180.10535,857.18892,97.8
1319, 11:24:28,63.265467,180.63589,859.75,97.8
1320, 11:24:29,63.428662,181.391098,861.025568,98.05
1321, 11:24:29,63.572246,181.919863,863.362926,98.05
1322, 11:24:29,63.678859,182.470289,864.665483,98.05
1323, 11:24:29,63.77474,182.918916,866.354403,98.05
1324, 11:24:29,63.850458,183.467093,867.37358,98.05
1325, 11:24:29,63.951428,183.998224,869.114347,98.05
1326, 11:24:29,64.050742,184.409801,870.316761,98.05
1327, 11:24:29,64.186829,185.033499,872.757812,98.05
1328, 11:24:29,64.315499,185.569602,874.056818,98.05
1329, 11:24:29,64.400923,186.136955,875.131392,98.05
1330, 11:24:29,64.500592,186.620147,876.465199,98.05
1331, 11:24:29,64.584675,187.043797,877.75142,98.05
1332, 11:24:29,64.718395,187.732363,879.871449,98.05
1333, 11:24:29,64.757891,188.211648,880.8125,98.05
1334, 11:24:29,64.886127,188.88518,882.933239,98.05
1335, 11:24:29,64.645833,188.035985,878.619318,98.05
1336, 11:24:29,63.873935,184.523319,867.699574,98.05
1337, 11:24:29,63.120818,180.428741,857.166193,98.05
1338, 11:24:29,62.62575,177.961529,849.243608,98.05
1339, 11:24:29,62.471907,176.97017,846.951705,98.05
1340, 11:24:29,62.421046,176.698272,846.297585,98.05
1341, 11:24:29,62.402028,176.674361,846.631392,98.05
1342, 11:24:29,62.396701,176.708097,846.742898,98.05
1343, 11:24:29,62.558239,177.366951,849.161932,98.05
1344, 11:24:29,62.655224,177.83357,850.515625,98.05
1345, 11:24:29,62.721985,178.129025,851.927557,98.05
1346, 11:24:29,62.770715,178.341974,852.520597,98.05
1347, 11:24:29,62.791864,178.472183,852.679688,98.05
1348, 11:24:29,62.917022,178.870384,855.06321,98.05
1349, 11:24:29,63.024503,179.341974,856.091619,98.05
1350, 11:24:30,63.18458,180.051373,857.37358,98.05
1351, 11:24:30,63.345762,180.75509,860.058949,98.05
1352, 11:24:30,63.481929,181.416903,861.191761,98.05
1353, 11:24:30,63.649187,182.09008,864.662642,98.05
1354, 11:24:30,63.742779,182.601918,865.213778,98.05
1355, 11:24:30,63.862847,183.15767,867.190341,98.05
1356, 11:24:30,63.964331,183.736269,868.130682,98.05
1357, 11:24:30,64.074968,184.204072,869.582386,98.05
1358, 11:24:30,64.209951,184.878906,871.824574,98.05
1359, 11:24:30,64.312224,185.437145,874.066051,98.05
1360, 11:24:30,64.481297,186.144176,875.740057,98.05
1361, 11:24:30,64.553464,186.579901,876.129972,98.05
1362, 11:24:30,64.550347,186.687973,876.400568,98.05
1363, 11:24:30,64.045691,184.46946,869.03267,98.05
1364, 11:24:30,63.416667,181.308712,860.153409,98.05
1365, 11:24:30,63.037682,179.160866,854.064631,98.05
1366, 11:24:30,62.887192,178.325402,850.705256,98.05
1367, 11:24:30,62.911064,178.266809,852.25142,98.05
1368, 11:24:30,62.918403,178.372159,852.53125,98.05
1369, 11:24:30,63.028212,178.736624,854.394176,98.05
1370, 11:24:30,63.15191,179.330729,856.080966,98.05
1371, 11:24:30,63.260101,179.91572,858.133523,98.05
1372, 11:24:30,63.320668,180.207268,858.161222,98.05
1373, 11:24:30,63.355784,180.253906,859.299006,98.05
1374, 11:24:30,63.399621,180.463068,859.284091,98.05
1375, 11:24:30,63.473564,180.845881,860.620739,98.05
1376, 11:24:30,63.637271,181.554332,862.65554,98.05
1377, 11:24:30,63.7936,182.185251,864.889915,98.05
1378, 11:24:30,63.949811,182.920455,866.582386,98.05
1379, 11:24:30,64.090199,183.525805,868.06392,98.05
1380, 11:24:31,64.228417,184.168679,871.051847,98.05
1381, 11:24:31,64.349077,184.770241,871.879972,98.05
1382, 11:24:31,64.434659,185.29214,873.440341,98.05
1383, 11:24:31,64.572167,186.010535,875.727983,98.05
1384, 11:24:31,64.667259,186.445904,876.43679,98.05
1385, 11:24:31,64.774503,187.020952,878.583097,98.05
1386, 11:24:31,64.904474,187.741359,880.814631,98.05
1387, 11:24:31,65.040996,188.345052,882.746449,98.05
1388, 11:24:31,65.148635,188.974313,884.095881,98.05
1389, 11:24:31,65.252762,189.498816,885.75142,98.05
1390, 11:24:31,65.37208,190.228456,887.325284,98.05
1391, 11:24:31,65.470249,190.790483,889.066761,98.05
1392, 11:24:31,65.56613,191.318182,890.15625,98.05
1393, 11:24:31,65.706676,191.995975,892.799716,98.05
1394, 11:24:31,65.782789,192.528764,893.865767,98.05
1395, 11:24:31,65.84809,193.102036,895.018466,98.05
1396, 11:24:31,65.61699,192.23544,891.017756,98.05
1397, 11:24:31,65.145202,189.548769,883.289773,98.05
1398, 11:24:31,64.726247,187.004025,876.583807,98.05
1399, 11:24:31,64.609414,185.822562,874.105824,98.05
1400, 11:24:31,64.587318,185.493963,873.347301,98.05
1401, 11:24:31,64.583373,185.478812,873.889915,98.05
1402, 11:24:31,64.621173,185.583688,874.675426,98.05
1403, 11:24:31,64.670494,185.795573,875.540483,98.05
1404, 11:24:31,64.750868,186.232244,876.879261,98.05
1405, 11:24:31,64.706124,186.335701,875.653409,98.05
1406, 11:24:31,64.675229,186.389323,875.972301,98.05
1407, 11:24:31,64.687934,186.336056,876.243608,98.05
1408, 11:24:31,64.694602,186.320076,876.21875,98.05
1409, 11:24:31,64.767361,186.652462,876.977273,98.05
1410, 11:24:32,64.844894,187.084399,877.520597,98.05
1411, 11:24:32,64.940223,187.667259,880.080256,98.05
1412, 11:24:32,64.979561,188.100142,880.37358,98.05
1413, 11:24:32,65.114938,188.675781,883.551847,98.05
1414, 11:24:32,65.18825,189.005563,883.914062,98.05
1415, 11:24:32,65.332229,189.647254,885.894886,98.05
1416, 11:24:32,65.365057,189.955019,886.6875,98.05
1417, 11:24:32,65.406289,190.315933,887.833097,98.05
1418, 11:24:32,65.536892,190.947325,889.385653,98.05
1419, 11:24:32,65.59813,191.386719,890.544744,98.05
1420, 11:24:32,65.721867,191.948272,893.064631,98.05
1421, 11:24:32,65.72601,192.193655,893.153409,98.05
1422, 11:24:32,65.459162,190.993963,888.00071,98.05
1423, 11:24:32,65.011443,188.744081,881.370739,98.05
1424, 11:24:32,64.78488,187.116004,876.951705,98.05
1425, 11:24:32,64.742266,186.40483,877.198864,98.05
1426, 11:24:32,64.692629,186.087358,875.294034,98.05
1427, 11:24:32,64.738873,186.174479,876.649148,98.05
1428, 11:24:32,64.711727,186.254498,875.745739,98.05
1429, 11:24:32,64.820312,186.614347,878.009943,98.05
1430, 11:24:32,64.843632,186.909209,878.378551,98.05
1431, 11:24:32,64.85101,187.087121,879.105114,98.05
1432, 11:24:32,64.870423,187.108428,878.840909,98.05
1433, 11:24:32,64.852588,187.176136,879.045455,98.05
1434, 11:24:32,64.903172,187.409328,879.757102,98.05
1435, 11:24:32,64.951113,187.674361,880.540483,98.05
1436, 11:24:32,65.078835,188.261127,882.302557,98.05
1437, 11:24:32,65.141256,188.685606,883.909091,98.05
1438, 11:24:32,65.259115,189.282079,885.303267,98.05
1439, 11:24:32,65.324495,189.641572,886.803977,98.05
1440, 11:24:33,65.386561,190.131274,887.370028,97.8
1441, 11:24:33,65.470604,190.555753,889.081676,97.8
1442, 11:24:33,65.488794,190.731534,889.548295,97.8
1443, 11:24:33,65.608349,191.294271,891.546875,97.8
1444, 11:24:33,65.622199,191.672467,891.725142,97.8
1445, 11:24:33,65.745778,192.230705,894.222301,97.8
1446, 11:24:33,65.835069,192.714489,895.076705,97.8
1447, 11:24:33,65.932449,193.289299,896.5,97.8
1448, 11:24:33,66.053464,193.918442,898.808949,97.8
1449, 11:24:33,66.096078,194.223366,899.132812,97.8
1450, 11:24:33,66.220368,194.927202,901.12571,97.8
1451, 11:24:33,66.308949,195.384706,903.18892,97.8
1452, 11:24:33,66.414575,195.947325,904.277699,97.8
1453, 11:24:33,66.4927,196.372514,906.470881,97.8
1454, 11:24:33,66.566564,196.798651,905.726562,97.8
1455, 11:24:33,66.704782,197.392756,909.296875,97.8
1456, 11:24:33,66.504104,196.710227,906.230114,97.8
1457, 11:24:33,65.960148,194.383286,898.004261,97.8
1458, 11:24:33,65.626342,191.759233,891.538352,97.8
1459, 11:24:33,65.457465,190.295691,888.115057,97.8
1460, 11:24:33,65.409722,189.742424,886.855114,97.8
1461, 11:24:33,65.401278,189.49929,886.22017,97.8
1462, 11:24:33,65.383681,189.319602,886.491477,97.8
1463, 11:24:33,65.356061,189.079545,886.082386,97.8
1464, 11:24:33,65.398595,189.179688,886.43608,97.8
1465, 11:24:33,65.387311,189.210701,887.022727,97.8
1466, 11:24:33,65.399069,189.243134,886.055398,97.8
1467, 11:24:33,65.389402,189.241596,886.895597,97.8
1468, 11:24:33,65.389362,189.194129,886.863636,97.8
1469, 11:24:33,65.454111,189.371804,887.975142,97.8
1470, 11:24:34,65.483112,189.571023,888.477273,97.8
1471, 11:24:34,65.568379,189.995384,890.060369,97.8
1472, 11:24:34,65.593632,190.228338,890.006392,97.8
1473, 11:24:34,65.727588,190.746212,892.377841,97.8
1474, 11:24:34,65.783026,191.085346,892.424006,97.8
1475, 11:24:34,65.810803,191.347656,893.509233,97.8
1476, 11:24:34,65.900568,191.741951,895.28125,97.8
1477, 11:24:34,65.950758,192.025095,895.644886,97.8
1478, 11:24:34,66.034683,192.521188,897.215199,97.8
1479, 11:24:34,66.046757,192.802675,897.318892,97.8
1480, 11:24:34,66.170731,193.320904,898.664062,97.8
1481, 11:24:34,66.220052,193.693774,900.503551,97.8
1482, 11:24:34,66.323587,194.09008,901.68821,97.8
1483, 11:24:34,66.378946,194.54214,902.806818,97.8
1484, 11:24:34,66.47818,194.954427,903.487926,97.8
1485, 11:24:34,66.562697,195.400213,906.071733,97.8
1486, 11:24:34,66.61044,195.716264,905.928267,97.8
1487, 11:24:34,66.705887,196.225616,907.725852,97.8
1488, 11:24:34,66.716817,196.518348,907.987926,97.8
1489, 11:24:34,66.561829,195.797704,905.575994,97.8
1490, 11:24:34,66.112453,193.334991,898.711648,97.8
1491, 11:24:34,65.69843,190.71508,891.108665,97.8
1492, 11:24:34,65.541785,189.236151,887.658381,97.8
1493, 11:24:34,65.482718,188.448153,886.24858,97.8
1494, 11:24:34,65.45348,188.2558,886.077415,97.8
1495, 11:24:34,65.40696,187.903172,884.62642,97.8
1496, 11:24:34,65.418008,187.901278,885.575284,97.8
1497, 11:24:34,65.453717,187.970052,885.774858,97.8
1498, 11:24:34,65.449416,188.078362,886.120739,97.8
1499, 11:24:34,65.441209,188.069366,886.504261,97.8
1500, 11:24:35,65.386561,187.836766,884.557528,97.8
1501, 11:24:35,65.422467,187.857363,886.027699,97.8
1502, 11:24:35,65.44547,187.941051,885.975852,97.8
1503, 11:24:35,65.550505,188.30161,887.767045,97.8
1504, 11:24:35,65.643111,188.742306,889.675426,97.8
1505, 11:24:35,65.693142,189.018348,889.885653,97.8
1506, 11:24:35,65.798611,189.491004,891.75,97.8
1507, 11:24:35,65.866596,189.800071,891.428267,97.8
1508, 11:24:35,65.93896,190.296046,893.577415,97.8
1509, 11:24:35,65.998935,190.569721,894.557528,97.8
1510, 11:24:35,66.031408,190.832386,894.767045,97.8
1511, 11:24:35,66.122593,191.259351,896.118608,97.8
1512, 11:24:35,66.174361,191.549598,897.058949,97.8
1513, 11:24:35,66.260732,191.960227,898.934659,97.8
1514, 11:24:35,66.350971,192.490885,900.348722,97.8
1515, 11:24:35,66.395557,192.82919,900.912642,97.8
1516, 11:24:35,66.386245,192.866596,900.835938,97.8
1517, 11:24:35,66.008996,191.06108,894.03125,97.8
1518, 11:24:35,65.609099,188.613281,887.679688,97.8
1519, 11:24:35,65.338147,186.948153,883.910511,97.8
1520, 11:24:35,65.217921,186.174124,882.138494,97.8
1521, 11:24:35,65.234178,186.039181,882.581676,97.8
1522, 11:24:35,65.210188,186.042969,882.277699,97.8
1523, 11:24:35,65.250237,186.15696,883.140625,97.8
1524, 11:24:35,65.307568,186.549598,884.21804,97.8
1525, 11:24:35,65.327967,186.657197,884.667614,97.8
1526, 11:24:35,65.353496,186.799598,884.700994,97.8
1527, 11:24:35,65.325915,186.705966,883.877841,97.8
1528, 11:24:35,65.369713,186.841146,884.72017,97.8
1529, 11:24:35,65.424321,186.991714,885.237216,97.8
1530, 11:24:36,65.494121,187.283026,886.24929,97.8
1531, 11:24:36,65.624329,187.902344,888.695312,97.8
1532, 11:24:36,65.705848,188.249171,889.142756,97.8
1533, 11:24:36,65.836727,188.808949,891.328125,97.8
1534, 11:24:36,65.891454,189.185724,891.870028,97.8
1535, 11:24:36,65.969697,189.597538,892.758523,97.8
1536, 11:24:36,66.075876,189.957268,893.96804,97.8
1537, 11:24:36,66.095565,190.331676,895.291193,97.8
1538, 11:24:36,66.218987,190.841619,896.830966,97.8
1539, 11:24:36,66.260456,191.127012,897.966619,97.8
1540, 11:24:36,66.403883,191.693655,899.889205,97.8
1541, 11:24:36,66.465396,192.111151,900.629972,97.8
1542, 11:24:36,66.52395,192.517401,901.700994,97.8
1543, 11:24:36,66.609454,192.939631,903.078125,97.8
1544, 11:24:36,66.666588,193.357718,904.132102,97.8
1545, 11:24:36,66.752367,193.838542,905.53125,97.8
1546, 11:24:36,66.863163,194.256155,906.357955,97.8
1547, 11:24:36,66.938368,194.814157,908.419034,97.8
1548, 11:24:36,66.915286,194.881747,907.702415,97.8
1549, 11:24:36,66.609809,193.383878,902.62429,97.8
1550, 11:24:36,65.989307,190.353338,894.017756,97.8
1551, 11:24:36,65.62867,188.079664,888.321733,97.8
1552, 11:24:36,65.488045,186.99633,885.398438,97.8
1553, 11:24:36,65.405382,186.587831,884.674716,97.8
1554, 11:24:36,65.4302,186.656132,884.84304,97.8
1555, 11:24:36,65.432805,186.71366,884.827415,97.8
1556, 11:24:36,65.569484,187.231652,887.71946,97.8
1557, 11:24:36,65.610598,187.545336,888.178267,97.8
1558, 11:24:36,65.614623,187.636009,888.350142,97.8
1559, 11:24:36,65.58361,187.560488,887.558949,97.8
1560, 11:24:37,65.562973,187.416667,886.846591,97.825
1561, 11:24:37,65.604877,187.565578,888.041193,97.825
1562, 11:24:37,65.662642,187.8241,888.768466,97.825
1563, 11:24:37,65.822483,188.474077,891.824574,97.825
1564, 11:24:37,65.897412,188.857008,892.227273,97.825
1565, 11:24:37,65.977273,189.348958,892.991477,97.825
1566, 11:24:37,66.106376,189.846117,894.78125,97.825
1567, 11:24:37,66.176136,190.1875,895.829545,97.825
1568, 11:24:37,66.289694,190.720407,896.714489,97.825
1569, 11:24:37,66.30816,190.982718,897.214489,97.825
1570, 11:24:37,66.412642,191.502604,899.367898,97.825
1571, 11:24:37,66.505366,191.772727,900.772727,97.825
1572, 11:24:37,66.568695,192.296993,901.727983,97.825
1573, 11:24:37,66.539378,192.224195,901.31392,97.825
1574, 11:24:37,66.105903,190.330492,894.721591,97.825
1575, 11:24:37,65.589568,187.769176,886.697443,97.825
1576, 11:24:37,65.25288,185.721709,881.730824,97.825
1577, 11:24:37,65.100458,185.025331,879.930398,97.825
1578, 11:24:37,65.067353,184.827533,879.584517,97.825
1579, 11:24:37,65.080926,184.861151,880.547585,97.825
1580, 11:24:37,65.156053,185.2442,881.53054,97.825
1581, 11:24:37,65.193616,185.634825,882.306108,97.825
1582, 11:24:37,65.300268,186.03196,883.50142,97.825
1583, 11:24:37,65.277146,186.083333,883.911932,97.825
1584, 11:24:37,65.297151,186.176965,883.635653,97.825
1585, 11:24:37,65.317314,186.242661,883.947443,97.825
1586, 11:24:37,65.40554,186.600142,885.49858,97.825
1587, 11:24:37,65.5073,187.100971,886.992188,97.825
1588, 11:24:37,65.650134,187.64169,889.15696,97.825
1589, 11:24:37,65.78267,188.362689,890.579545,97.825
1590, 11:24:38,65.885969,188.793324,891.401989,97.8
1591, 11:24:38,66.032039,189.419034,893.872159,97.8
1592, 11:24:38,66.093592,189.811553,895.025568,97.8
1593, 11:24:38,66.196338,190.335227,896.465909,97.8
1594, 11:24:38,66.272727,190.732008,897.389205,97.8
1595, 11:24:38,66.42077,191.289773,899.463068,97.8
1596, 11:24:38,66.511403,191.808357,900.881392,97.8
1597, 11:24:38,66.558988,192.099313,901.845881,97.8
1598, 11:24:38,66.657394,192.741596,902.242188,97.8
1599, 11:24:38,66.701783,193.058475,904.038352,97.8
1600, 11:24:38,66.856376,193.713068,906.542614,97.8
1601, 11:24:38,66.956637,194.325876,907.71946,97.8
1602, 11:24:38,67.074574,194.794271,909.603693,97.8
1603, 11:24:38,67.125868,195.178267,910.734375,97.8
1604, 11:24:38,66.764126,193.800426,904.884943,97.8
1605, 11:24:38,66.116596,190.403764,894.985085,97.8
1606, 11:24:38,65.48402,187.182647,886.050426,97.8
1607, 11:24:38,65.205611,185.530658,881.573153,97.8
1608, 11:24:38,65.092842,184.756274,879.208097,97.8
1609, 11:24:38,65.025253,184.421402,879.622159,97.8
1610, 11:24:38,64.960622,184.107244,878.606534,97.8
1611, 11:24:38,64.915286,183.975497,878.006392,97.8
1612, 11:24:38,64.960346,184.370147,878.033381,97.8
1613, 11:24:38,65.060251,184.7442,880.414062,97.8
1614, 11:24:38,65.145912,185.112926,881.31392,97.8
1615, 11:24:38,65.154514,185.191761,881.664773,97.8
1616, 11:24:38,65.197206,185.360085,882.15767,97.8
1617, 11:24:38,65.317077,185.78267,884.25,97.8
1618, 11:24:38,65.429845,186.347301,885.012784,97.8
1619, 11:24:38,65.570234,186.924716,887.857955,97.8
1620, 11:24:39,65.670178,187.50438,889.262074,97.8
1621, 11:24:39,65.839646,188.196023,891.485795,97.8
1622, 11:24:39,65.934935,188.697798,892.064631,97.8
1623, 11:24:39,66.020597,189.128551,892.955966,97.8
1624, 11:24:39,66.121528,189.63589,894.900568,97.8
1625, 11:24:39,66.220604,190.001776,896.078835,97.8
1626, 11:24:39,66.347262,190.552202,897.37571,97.8
1627, 11:24:39,66.431818,190.931818,899.051136,97.8
1628, 11:24:39,66.569444,191.554924,900.605114,97.8
1629, 11:24:39,66.679924,192.060606,902.5,97.8
1630, 11:24:39,66.755248,192.601444,903.009233,97.8
1631, 11:24:39,66.892992,193.170928,904.994318,97.8
1632, 11:24:39,66.962753,193.687027,906.551136,97.8
1633, 11:24:39,67.044665,194.171875,907.551136,97.8
1634, 11:24:39,67.086214,194.533736,908.017756,97.8
1635, 11:24:39,67.235874,195.123343,911.453125,97.8
1636, 11:24:39,67.303504,195.63589,911.602273,97.8
1637, 11:24:39,67.413116,196.196733,913.74858,97.8
1638, 11:24:39,67.438447,196.421402,914.286932,97.8
1639, 11:24:39,67.053819,194.781723,908.085227,97.8
1640, 11:24:39,66.442669,191.454427,897.791903,97.8
1641, 11:24:39,65.866556,188.43679,889.393466,97.8
1642, 11:24:39,65.609059,186.889678,886.207386,97.8
1643, 11:24:39,65.439749,186.05741,883.966619,97.8
1644, 11:24:39,65.44764,185.99491,883.892756,97.8
1645, 11:24:39,65.414852,185.778172,883.65767,97.8
1646, 11:24:39,65.387034,185.727865,882.534801,97.8
1647, 11:24:39,65.443971,186.012311,884.042614,97.8
1648, 11:24:39,65.510456,186.454664,885.12571,97.8
1649, 11:24:39,65.550623,186.607836,885.397017,97.8
1650, 11:24:40,65.568576,186.650805,885.893466,97.775
1651, 11:24:40,65.592961,186.820549,886.528409,97.775
1652, 11:24:40,65.668797,187.210464,887.649148,97.775
1653, 11:24:40,65.779356,187.681345,889.045455,97.775
1654, 11:24:40,65.936592,188.43241,891.441051,97.775
1655, 11:24:40,66.019097,188.785985,892.451705,97.775
1656, 11:24:40,66.151278,189.388968,894.00142,97.775
1657, 11:24:40,66.241556,189.867661,894.958807,97.775
1658, 11:24:40,66.352786,190.347183,895.918324,97.775
1659, 11:24:40,66.4433,190.826586,897.37429,97.775
1660, 11:24:40,66.515033,191.227391,898.497869,97.775
1661, 11:24:40,66.612137,191.695786,900.305398,97.775
1662, 11:24:40,66.693695,192.097656,901.25071,97.775
1663, 11:24:40,66.847696,192.758996,903.721591,97.775
1664, 11:24:40,66.894807,193.159801,903.913352,97.775
1665, 11:24:40,66.994239,193.641809,906.041193,97.775
1666, 11:24:40,67.0683,194.189749,907.081676,97.775
1667, 11:24:40,67.128867,194.535275,908.72017,97.775
1668, 11:24:40,67.22893,195.075047,909.805398,97.775
1669, 11:24:40,67.284525,195.581795,911.161222,97.775
1670, 11:24:40,67.414181,196.19188,912.986506,97.775
1671, 11:24:40,67.408302,196.349432,913.133523,97.775
1672, 11:24:40,67.083886,195.044744,908.25142,97.775
1673, 11:24:40,66.515664,191.909209,899.040483,97.775
1674, 11:24:40,66.018505,189.176255,890.770597,97.775
1675, 11:24:40,65.802636,187.787642,887.87642,97.775
1676, 11:24:40,65.70928,187.317708,886.696023,97.775
1677, 11:24:40,65.716106,187.293679,887.333097,97.775
1678, 11:24:40,65.679293,187.215909,886.136364,97.775
1679, 11:24:40,65.728299,187.431581,887.370739,97.775
1680, 11:24:41,65.805437,187.783262,888.620028,97.55
1681, 11:24:41,65.844815,188.103101,888.996449,97.55
1682, 11:24:41,65.864149,188.230705,889.736506,97.55
1683, 11:24:41,65.85539,188.232836,889.800426,97.55
1684, 11:24:41,65.89465,188.443892,890.112216,97.55
1685, 11:24:41,65.965988,188.721354,890.916193,97.55
1686, 11:24:41,66.120423,189.324811,893.002841,97.55
1687, 11:24:41,66.202415,189.760653,894.348011,97.55
1688, 11:24:41,66.300466,190.296283,895.800426,97.55
1689, 11:24:41,66.401791,190.777817,896.931108,97.55
1690, 11:24:41,66.456952,191.180043,897.526278,97.55
1691, 11:24:41,66.560093,191.656132,899.558949,97.55
1692, 11:24:41,66.612847,191.988163,900.534091,97.55
1693, 11:24:41,66.698706,192.450758,902.028409,97.55
1694, 11:24:41,66.758523,192.820076,902.96875,97.55
1695, 11:24:41,66.790286,193.097183,903.176847,97.55
1696, 11:24:41,66.905342,193.747277,904.486506,97.55
1697, 11:24:41,67.038431,194.312737,907.069602,97.55
1698, 11:24:41,67.110164,194.835227,908.210227,97.55
1699, 11:24:41,66.974432,194.423769,906.153409,97.55
1700, 11:24:41,66.545139,192.330492,898.875,97.55
1701, 11:24:41,65.997909,189.434541,890.445312,97.55
1702, 11:24:41,65.699968,187.752841,886.633523,97.55
1703, 11:24:41,65.642558,187.196141,885.75071,97.55
1704, 11:24:41,65.62788,187.138376,885.753551,97.55
1705, 11:24:41,65.631866,187.3634,886.887784,97.55
1706, 11:24:41,65.714844,187.6933,887.628551,97.55
1707, 11:24:41,65.85827,188.34517,889.741477,97.55
1708, 11:24:41,65.897017,188.608191,890.430398,97.55
1709, 11:24:41,65.899818,188.587713,889.716619,97.55
1710, 11:24:42,65.905264,188.626302,890.348722,97.525
1711, 11:24:42,65.919863,188.704664,890.034801,97.525
1712, 11:24:42,66.017835,189.13447,891.369318,97.525
1713, 11:24:42,66.127565,189.609967,893.429688,97.525
1714, 11:24:42,66.25363,190.232008,895.173295,97.525
1715, 11:24:42,66.407394,190.851444,896.972301,97.525
1716, 11:24:42,66.448627,191.298532,897.455966,97.525
1717, 11:24:42,66.575481,191.79794,899.370028,97.525
1718, 11:24:42,66.670573,192.239465,900.879972,97.525
1719, 11:24:42,66.722025,192.572325,901.539062,97.525
1720, 11:24:42,66.785354,193.065814,903.414773,97.525
1721, 11:24:42,66.829624,193.369081,903.737216,97.525
1722, 11:24:42,66.939591,194.011482,905.62571,97.525
1723, 11:24:42,66.992543,194.357836,907.087358,97.525
1724, 11:24:42,67.065144,194.756037,907.445312,97.525
1725, 11:24:42,67.165365,195.331321,909.428267,97.525
1726, 11:24:42,67.207899,195.697562,909.256392,97.525
1727, 11:24:42,67.320549,196.210701,911.272727,97.525
1728, 11:24:42,67.398359,196.723485,912.519886,97.525
1729, 11:24:42,67.500868,197.335464,915.27983,97.525
1730, 11:24:42,67.461529,197.24633,914.040483,97.525
1731, 11:24:42,66.910354,194.909091,906.230114,97.525
1732, 11:24:42,66.382852,191.807173,896.817472,97.525
1733, 11:24:42,66.002801,189.399503,890.291903,97.525
1734, 11:24:42,65.854009,188.467803,887.795455,97.525
1735, 11:24:42,65.808633,188.206676,887.927557,97.525
1736, 11:24:42,65.784722,188.125947,888.039773,97.525
1737, 11:24:42,65.828086,188.384825,888.519176,97.525
1738, 11:24:42,65.897885,188.650568,889.207386,97.525
1739, 11:24:42,66.038628,189.156132,891.502131,97.525
1740, 11:24:43,65.990136,189.140388,891.134943,97.55
1741, 11:24:43,65.974313,189.130327,890.909801,97.55
1742, 11:24:43,65.959635,189.084399,890.560369,97.55
1743, 11:24:43,66.020163,189.256984,890.118608,97.55
1744, 11:24:43,66.093237,189.65045,891.675426,97.55
1745, 11:24:43,66.224077,190.177912,894.425426,97.55
1746, 11:24:43,66.336253,190.761127,895.714489,97.55
1747, 11:24:43,66.415365,191.135298,896.71804,97.55
1748, 11:24:43,66.532355,191.725852,898.485795,97.55
1749, 11:24:43,66.561158,192.087831,899.336648,97.55
1750, 11:24:43,66.649108,192.459162,900.575994,97.55
1751, 11:24:43,66.713857,192.829545,901.420455,97.55
1752, 11:24:43,66.771307,193.223011,902.198864,97.55
1753, 11:24:43,66.878354,193.733546,904.557528,97.55
1754, 11:24:43,66.885811,194.022491,904.697443,97.55
1755, 11:24:43,66.791272,193.661695,902.833807,97.55
1756, 11:24:43,66.279396,191.157315,894.608665,97.55
1757, 11:24:43,65.787287,188.443774,887.566051,97.55
1758, 11:24:43,65.483823,186.665009,882.572443,97.55
1759, 11:24:43,65.373106,186.085701,881.159091,97.55
1760, 11:24:43,65.325994,185.950521,880.81392,97.55
1761, 11:24:43,65.288747,185.747396,880.629261,97.55
1762, 11:24:43,65.321615,185.968158,881.323153,97.55
1763, 11:24:43,65.434856,186.533736,882.855824,97.55
1764, 11:24:43,65.486624,186.832031,883.702415,97.55
1765, 11:24:43,65.492464,186.960346,884.705256,97.55
1766, 11:24:43,65.523398,187.064512,884.821733,97.55
1767, 11:24:43,65.509509,187.168679,884.006392,97.55
1768, 11:24:43,65.600458,187.459991,885.291193,97.55
1769, 11:24:43,65.743647,188.106889,887.897017,97.55
1770, 11:24:44,65.859217,188.543087,889.434659,97.525
1771, 11:24:44,65.962397,189.158499,891.019176,97.525
1772, 11:24:44,66.059186,189.668087,892.176136,97.525
1773, 11:24:44,66.116832,190.002959,892.520597,97.525
1774, 11:24:44,66.246765,190.604877,894.941761,97.525
1775, 11:24:44,66.32264,190.91205,896.514915,97.525
1776, 11:24:44,66.389757,191.451941,897.52983,97.525
1777, 11:24:44,66.447996,191.778646,897.600852,97.525
1778, 11:24:44,66.5683,192.311435,899.470881,97.525
1779, 11:24:44,66.604719,192.702415,900.81392,97.525
1780, 11:24:44,66.624961,193.070904,900.928267,97.525
1781, 11:24:44,66.709004,193.526634,902.577415,97.525
1782, 11:24:44,66.79577,193.981061,903.630682,97.525
1783, 11:24:44,66.903449,194.603338,905.585938,97.525
1784, 11:24:44,66.948745,194.938092,906.995028,97.525
1785, 11:24:44,67.001736,195.253788,907.519886,97.525
1786, 11:24:44,66.613636,193.75,900.443182,97.525
1787, 11:24:44,65.939789,190.337831,890.984375,97.525
1788, 11:24:44,65.416785,187.397135,882.266335,97.525
1789, 11:24:44,65.140546,185.740767,878.205966,97.525
1790, 11:24:44,65.068932,185.244673,877.891335,97.525
1791, 11:24:44,64.960227,184.924716,875.78125,97.525
1792, 11:24:44,64.872001,184.589489,875.457386,97.525
1793, 11:24:44,64.870305,184.630327,875.730824,97.525
1794, 11:24:44,64.971196,184.998343,877.276989,97.525
1795, 11:24:44,65.052004,185.320786,879.34233,97.525
1796, 11:24:44,65.048887,185.371094,878.362926,97.525
1797, 11:24:44,65.055753,185.514323,879.134233,97.525
1798, 11:24:44,65.053938,185.626302,878.090199,97.525
1799, 11:24:44,65.149227,186.02107,880.333807,97.525
1800, 11:24:45,65.269334,186.568419,882.035511,97.3
1801, 11:24:45,65.327809,187.000473,883.267045,97.3
1802, 11:24:45,65.463542,187.624527,884.625,97.3
1803, 11:24:45,65.575284,188.039773,886.650568,97.3
1804, 11:24:45,65.674282,188.546046,888.014915,97.3
1805, 11:24:45,65.732994,188.914418,888.858665,97.3
1806, 11:24:45,65.849235,189.432173,890.169744,97.3
1807, 11:24:45,65.937342,189.897727,891.931818,97.3
1808, 11:24:45,65.957229,190.166667,891.514205,97.3
1809, 11:24:45,66.066288,190.701705,893.539773,97.3
1810, 11:24:45,66.137311,191.196496,894.443182,97.3
1811, 11:24:45,66.244831,191.733546,895.841619,97.3
1812, 11:24:45,66.300584,192.154119,897.27983,97.3
1813, 11:24:45,66.404001,192.679332,899.226562,97.3
1814, 11:24:45,66.46149,193.119318,899.832386,97.3
1815, 11:24:45,66.517677,193.553977,901.215909,97.3
1816, 11:24:45,66.633444,194.149858,902.950284,97.3
1817, 11:24:45,66.678149,194.529238,904.09304,97.3
1818, 11:24:45,66.627999,194.331439,902.664773,97.3
1819, 11:24:45,66.032355,191.711174,893.741477,97.3
1820, 11:24:45,65.420731,188.283973,883.379972,97.3
1821, 11:24:45,64.995344,185.872869,877.004261,97.3
1822, 11:24:45,64.774503,184.65258,873.489347,97.3
1823, 11:24:45,64.72601,184.421402,874.534091,97.3
1824, 11:24:45,64.640862,184.085464,873.884943,97.3
1825, 11:24:45,64.625355,183.998224,873.966619,97.3
1826, 11:24:45,64.679766,184.296402,873.977273,97.3
1827, 11:24:45,64.758602,184.598248,875.40767,97.3
1828, 11:24:45,64.767361,184.68892,875.721591,97.3
1829, 11:24:45,64.736545,184.830848,874.825994,97.3
1830, 11:24:46,64.758168,184.899029,875.360085,97.3
1831, 11:24:46,64.778054,185.016454,875.806108,97.3
1832, 11:24:46,64.941525,185.56179,878.109375,97.3
1833, 11:24:46,65.027502,186.058357,878.977983,97.3
1834, 11:24:46,65.147846,186.601681,880.291903,97.3
1835, 11:24:46,65.288155,187.253196,882.294744,97.3
1836, 11:24:46,65.407276,187.731771,883.944602,97.3
1837, 11:24:46,65.505406,188.261009,885.475142,97.3
1838, 11:24:46,65.534959,188.568892,885.850852,97.3
1839, 11:24:46,65.65116,189.06901,887.806108,97.3
1840, 11:24:46,65.706124,189.392045,889.119318,97.3
1841, 11:24:46,65.822443,189.943182,890.482955,97.3
1842, 11:24:46,65.946772,190.615412,892.112926,97.3
1843, 11:24:46,66.023714,191.073035,893.227983,97.3
1844, 11:24:46,66.146267,191.680753,895.601562,97.3
1845, 11:24:46,66.187895,192.040956,896.50142,97.3
1846, 11:24:46,66.300623,192.633878,898.56179,97.3
1847, 11:24:46,66.383759,193.061316,899.333807,97.3
1848, 11:24:46,66.480587,193.647727,901.176136,97.3
1849, 11:24:46,66.588502,194.148556,902.641335,97.3
1850, 11:24:46,66.371488,193.446851,899.337358,97.3
1851, 11:24:46,65.791351,190.609375,889.809659,97.3
1852, 11:24:46,65.197522,187.265388,880.43892,97.3
1853, 11:24:46,64.844145,185.276752,876.12358,97.3
1854, 11:24:46,64.720644,184.433239,874.008523,97.3
1855, 11:24:46,64.697917,184.276989,874.190341,97.3
1856, 11:24:46,64.663194,184.155303,873.821023,97.3
1857, 11:24:46,64.648674,184.124527,873.335227,97.3
1858, 11:24:46,64.753275,184.590317,875.215199,97.3
1859, 11:24:46,64.771267,184.726681,875.658381,97.3
1860, 11:24:47,64.778291,184.941406,875.639915,97.275
1861, 11:24:47,64.775489,184.968513,875.515625,97.275
1862, 11:24:47,64.821812,185.016572,876.349432,97.275
1863, 11:24:47,64.905106,185.388139,878.053267,97.275
1864, 11:24:47,64.994515,185.742543,879.179688,97.275
1865, 11:24:47,65.156566,186.442235,881.448864,97.275
1866, 11:24:47,65.254853,186.953007,881.806108,97.275
1867, 11:24:47,65.363163,187.443655,883.286932,97.275
1868, 11:24:47,65.500395,187.986506,885.697443,97.275
1869, 11:24:47,65.588621,188.523911,886.740057,97.275
1870, 11:24:47,65.675742,188.880445,887.294034,97.275
1871, 11:24:47,65.764875,189.324929,889.509233,97.275
1872, 11:24:47,65.861151,189.831084,890.381392,97.275
1873, 11:24:47,65.925584,190.154593,891.098011,97.275
1874, 11:24:47,66.059304,190.836056,893.308949,97.275
1875, 11:24:47,66.107323,191.191288,894.457386,97.275
1876, 11:24:47,66.218079,191.696851,895.879972,97.275
1877, 11:24:47,66.314394,192.1875,898.110795,97.275
1878, 11:24:47,66.397254,192.678977,899.125,97.275
1879, 11:24:47,66.484099,193.19188,899.955256,97.275
1880, 11:24:47,66.542259,193.605469,900.854403,97.275
1881, 11:24:47,66.524779,193.616477,901.008523,97.275
1882, 11:24:47,66.006116,191.260298,892.536222,97.275
1883, 11:24:47,65.43312,188.142637,884.171165,97.275
1884, 11:24:47,65.026634,185.819484,877.504972,97.275
1885, 11:24:47,64.880642,184.733783,874.860085,97.275
1886, 11:24:47,64.834399,184.630563,875.661222,97.275
1887, 11:24:47,64.799992,184.541075,875.06179,97.275
1888, 11:24:47,64.837595,184.662879,875.690341,97.275
1889, 11:24:47,64.91497,184.953243,876.276278,97.275
1890, 11:24:48,65.008838,185.485795,878.323864,97.275
1891, 11:24:48,64.999053,185.442235,877.934659,97.275
1892, 11:24:48,64.985835,185.400687,877.637074,97.275
1893, 11:24:48,65.00071,185.457623,878.333807,97.275
1894, 11:24:48,65.050742,185.641809,878.49858,97.275
1895, 11:24:48,65.201468,186.198627,881.365057,97.275
1896, 11:24:48,65.281605,186.600024,881.693892,97.275
1897, 11:24:48,65.421007,187.275331,883.06392,97.275
1898, 11:24:48,65.511048,187.764205,885.25,97.275
1899, 11:24:48,65.619673,188.157789,887.020597,97.275
1900, 11:24:48,65.720131,188.663707,887.553267,97.275
1901, 11:24:48,65.762074,188.962831,888.115057,97.275
1902, 11:24:48,65.852391,189.373461,889.411222,97.275
1903, 11:24:48,65.940775,189.825639,890.306108,97.275
1904, 11:24:48,65.974353,190.053267,891.612216,97.275
1905, 11:24:48,66.101405,190.712831,893.31108,97.275
1906, 11:24:48,66.195036,191.067116,895.209517,97.275
1907, 11:24:48,66.24199,191.436198,895.466619,97.275
1908, 11:24:48,66.022569,190.583807,891.8125,97.275
1909, 11:24:48,65.433002,187.864347,883.240057,97.275
1910, 11:24:48,64.972025,185.274503,876.385653,97.275
1911, 11:24:48,64.687263,183.652225,872.72017,97.275
1912, 11:24:48,64.642203,183.226326,872.176136,97.275
1913, 11:24:48,64.629419,183.168561,872.394886,97.275
1914, 11:24:48,64.626381,183.231416,872.388494,97.275
1915, 11:24:48,64.712555,183.836056,874.709517,97.275
1916, 11:24:48,64.800387,184.237808,875.017756,97.275
1917, 11:24:48,64.848919,184.458215,875.990767,97.275
1918, 11:24:48,64.845841,184.491596,875.833097,97.275
1919, 11:24:48,64.809146,184.362098,875.039062,97.275
1920, 11:24:49,64.857757,184.560488,876.337358,97.25
1921, 11:24:49,64.956637,184.873224,877.506392,97.25
1922, 11:24:49,65.025805,185.47893,877.961648,97.25
1923, 11:24:49,65.171993,186.007931,880.877131,97.25
1924, 11:24:49,65.241753,186.514086,881.649858,97.25
1925, 11:24:49,65.381037,187.027107,883.997869,97.25
1926, 11:24:49,65.454664,187.46437,884.084517,97.25
1927, 11:24:49,65.569918,187.859848,886.008523,97.25
1928, 11:24:49,65.6497,188.290956,887.052557,97.25
1929, 11:24:49,65.710622,188.544744,887.757102,97.25
1930, 11:24:49,65.820036,189.048651,888.902699,97.25
1931, 11:24:49,65.875473,189.329545,890.15625,97.25
1932, 11:24:49,65.99779,189.976799,891.829545,97.25
1933, 11:24:49,66.087042,190.362926,893.629261,97.25
1934, 11:24:49,66.112729,190.684777,893.452415,97.25
1935, 11:24:49,65.925466,189.966738,890.649858,97.25
1936, 11:24:49,65.260496,186.970407,880.81392,97.25
1937, 11:24:49,64.692353,183.946851,872.723722,97.25
1938, 11:24:49,64.42081,182.225971,868.446733,97.25
1939, 11:24:49,64.298848,181.591146,867.112216,97.25
1940, 11:24:49,64.258799,181.590791,867.056108,97.25
1941, 11:24:49,64.255169,181.499882,867.246449,97.25
1942, 11:24:49,64.318024,181.754261,867.974432,97.25
1943, 11:24:49,64.416351,182.331439,869.977273,97.25
1944, 11:24:49,64.470644,182.714962,870.951705,97.25
1945, 11:24:49,64.464055,182.708452,870.620028,97.25
1946, 11:24:49,64.486151,182.821615,870.577415,97.25
1947, 11:24:49,64.499763,182.870975,871.964489,97.25
1948, 11:24:49,64.612808,183.392401,872.587358,97.25
1949, 11:24:49,64.746291,183.971828,874.833807,97.25
1950, 11:24:50,64.795849,184.36482,875.981534,97.0
1951, 11:24:50,64.969105,185.153054,877.983665,97.0
1952, 11:24:50,65.063842,185.646544,878.788352,97.0
1953, 11:24:50,65.136127,186.148911,880.305398,97.0
1954, 11:24:50,65.219697,186.59375,881.34375,97.0
1955, 11:24:50,65.323587,186.988281,883.199574,97.0
1956, 11:24:50,65.432647,187.429096,883.71946,97.0
1957, 11:24:50,65.511166,187.769295,884.914062,97.0
1958, 11:24:50,65.652738,188.42223,887.206676,97.0
1959, 11:24:50,65.733467,188.828243,888.114347,97.0
1960, 11:24:50,65.858073,189.396188,890.016335,97.0
1961, 11:24:50,65.934541,189.865649,891.088778,97.0
1962, 11:24:50,66.033341,190.296046,892.520597,97.0
1963, 11:24:50,66.150765,190.887902,894.787642,97.0
1964, 11:24:50,66.174558,191.192235,894.494318,97.0
1965, 11:24:50,66.310093,191.769295,896.496449,97.0
1966, 11:24:50,66.329309,192.066525,896.589489,97.0
1967, 11:24:50,66.45202,192.75142,899.213068,97.0
1968, 11:24:50,66.351444,192.54723,898.428267,97.0
1969, 11:24:50,65.744121,189.701586,888.536222,97.0
1970, 11:24:50,64.99128,185.899029,877.573153,97.0
1971, 11:24:50,64.435961,182.99491,869.892756,97.0
1972, 11:24:50,64.253393,181.610559,866.231534,97.0
1973, 11:24:50,64.127486,181.080848,865.485085,97.0
1974, 11:24:50,64.072009,180.889796,864.355824,97.0
1975, 11:24:50,63.996725,180.51527,863.887074,97.0
1976, 11:24:50,64.044271,180.828362,864.77983,97.0
1977, 11:24:50,64.138415,181.303504,866.78125,97.0
1978, 11:24:50,64.178819,181.591856,866.681818,97.0
1979, 11:24:50,64.205966,181.717803,867.502841,97.0
1980, 11:24:51,64.211095,181.794744,867.393466,96.975
1981, 11:24:51,64.263494,182.002604,868.481534,96.975
1982, 11:24:51,64.359493,182.474313,870.243608,96.975
1983, 11:24:51,64.506471,183.127367,871.761364,96.975
1984, 11:24:51,64.629064,183.730469,872.885653,96.975
1985, 11:24:51,64.73035,184.307528,874.981534,96.975
1986, 11:24:51,64.836608,184.840791,875.485085,96.975
1987, 11:24:51,64.994476,185.409564,877.997159,96.975
1988, 11:24:51,65.106692,185.996212,880.553977,96.975
1989, 11:24:51,65.176373,186.338778,880.671875,96.975
1990, 11:24:51,65.31467,186.949692,883.181108,96.975
1991, 11:24:51,65.404001,187.361624,884.237926,96.975
1992, 11:24:51,65.50292,187.840199,884.353693,96.975
1993, 11:24:51,65.636798,188.426018,887.090199,96.975
1994, 11:24:51,65.752644,188.978575,888.178267,96.975
1995, 11:24:51,65.879774,189.521899,890.06321,96.975
1996, 11:24:51,65.967211,190.02758,891.395597,96.975
1997, 11:24:51,66.040799,190.540009,893.137784,96.975
1998, 11:24:51,66.127723,190.980232,894.122869,96.975
1999, 11:24:51,66.264481,191.666075,896.675426,96.975
2000, 11:24:51,66.350142,192.169744,897.723011,96.975
2001, 11:24:51,66.340278,192.318655,898.085227,96.975
2002, 11:24:51,65.957031,190.416548,890.419744,96.975
2003, 11:24:51,65.174716,186.775568,880.122159,96.975
2004, 11:24:51,64.649266,183.893348,872.306108,96.975
2005, 11:24:51,64.406092,182.432765,869.252841,96.975
2006, 11:24:51,64.386009,182.195904,868.362926,96.975
2007, 11:24:51,64.357363,182.120384,869.239347,96.975
2008, 11:24:51,64.33357,182.013968,868.234375,96.975
2009, 11:24:51,64.40988,182.36553,870.011364,96.975
2010, 11:24:52,64.489978,182.780066,871.22017,96.975
2011, 11:24:52,64.580729,183.218987,872.143466,96.975
2012, 11:24:52,64.62066,183.320786,872.223011,96.975
2013, 11:24:52,64.647925,183.435251,873.014915,96.975
2014, 11:24:52,64.749961,183.840791,874.465199,96.975
2015, 11:24:52,64.820747,184.23544,874.730824,96.975
2016, 11:24:52,64.968119,184.991951,876.823864,96.975
2017, 11:24:52,65.122356,185.631747,879.847301,96.975
2018, 11:24:52,65.252683,186.191288,880.872159,96.975
2019, 11:24:52,65.412563,186.926136,883.261364,96.975
2020, 11:24:52,65.480469,187.314039,884.043324,96.975
2021, 11:24:52,65.6134,187.841619,885.572443,96.975
2022, 11:24:52,65.708807,188.277462,886.894886,96.975
2023, 11:24:52,65.820589,188.841027,888.455256,96.975
2024, 11:24:52,65.897412,189.21875,889.116477,96.975
2025, 11:24:52,66.028961,189.782907,890.992898,96.975
2026, 11:24:52,66.152225,190.479877,893.526989,96.975
2027, 11:24:52,66.269965,190.9884,894.649148,96.975
2028, 11:24:52,66.365017,191.422704,895.970881,96.975
2029, 11:24:52,66.002683,190.050189,891.164773,96.975
2030, 11:24:52,65.453835,187.403646,882.612216,96.975
2031, 11:24:52,65.025489,185.059422,876.558239,96.975
2032, 11:24:52,64.875434,183.937855,874.226562,96.975
2033, 11:24:52,64.833254,183.754972,874.140625,96.975
2034, 11:24:52,64.832189,183.704427,873.746449,96.975
2035, 11:24:52,64.915207,184.073745,875.570312,96.975
2036, 11:24:52,65.004735,184.575758,876.661932,96.975
2037, 11:24:52,65.160906,185.286695,878.768466,96.975
2038, 11:24:52,65.212279,185.58428,879.465909,96.975
2039, 11:24:52,65.247988,185.793679,880.182528,96.975
2040, 11:24:53,65.279908,185.92732,880.350852,96.975
2041, 11:24:53,65.326507,186.063329,881.573153,96.975
2042, 11:24:53,65.451902,186.623698,882.725142,96.975
2043, 11:24:53,65.562855,187.225024,884.293324,96.975
2044, 11:24:53,65.723366,187.956558,886.350142,96.975
2045, 11:24:53,65.850221,188.596591,888.051136,96.975
2046, 11:24:53,65.934107,189.129025,889.421875,96.975
2047, 11:24:53,66.026476,189.583688,890.536222,96.975
2048, 11:24:53,66.110874,189.933949,892.174716,96.975
2049, 11:24:53,66.250473,190.514678,893.880682,96.975
2050, 11:24:53,66.316327,190.866122,894.486506,96.975
2051, 11:24:53,66.429135,191.457386,896.78125,96.975
2052, 11:24:53,66.525134,191.939039,898.003551,96.975
2053, 11:24:53,66.622554,192.417377,899.089489,96.975
2054, 11:24:53,66.753354,193.094342,901.367188,96.975
2055, 11:24:53,66.811869,193.489583,902.338068,96.975
2056, 11:24:53,66.915838,194.082741,904.098722,96.975
2057, 11:24:53,67.009233,194.606297,905.901989,96.975
2058, 11:24:53,67.058081,195.104167,906.752841,96.975
2059, 11:24:53,67.117937,195.491122,907.591619,96.975
2060, 11:24:53,67.235914,196.050071,909.84304,96.975
2061, 11:24:53,67.331321,196.635062,911.776278,96.975
2062, 11:24:53,67.38372,197.100497,911.949574,96.975
2063, 11:24:53,67.234217,196.592803,910.238636,96.975
2064, 11:24:53,66.661498,193.841501,900.139915,96.975
2065, 11:24:53,66.203243,190.955374,893.502131,96.975
2066, 11:24:53,65.92953,189.1759,887.90483,96.975
2067, 11:24:53,65.841225,188.57339,887.360795,96.975
2068, 11:24:53,65.845486,188.515152,887.409091,96.975
2069, 11:24:53,65.824021,188.511837,887.522727,96.975
2070, 11:24:54,65.879735,188.723958,887.778409,96.975
2071, 11:24:54,65.949613,189.072325,888.706676,96.975
2072, 11:24:54,66.042101,189.479522,890.87429,96.975
2073, 11:24:54,66.021149,189.505208,890.255682,96.975
2074, 11:24:54,66.010338,189.466146,890.28267,96.975
2075, 11:24:54,66.016138,189.486387,890.693892,96.975
2076, 11:24:54,66.095881,189.804688,891.34517,96.975
2077, 11:24:54,66.166351,190.294508,892.815341,96.975
2078, 11:24:54,66.284407,190.787879,894.238636,96.975
2079, 11:24:54,66.420494,191.421046,896.480824,96.975
2080, 11:24:54,66.469934,191.778646,897.390625,96.975
2081, 11:24:54,66.599747,192.441761,899.724432,96.975
2082, 11:24:54,66.632142,192.820668,899.114347,96.975
2083, 11:24:54,66.720644,193.250947,900.801136,96.975
2084, 11:24:54,66.781763,193.700402,902.53196,96.975
2085, 11:24:54,66.866675,194.118963,903.304688,96.975
2086, 11:24:54,66.943774,194.571851,904.703835,96.975
2087, 11:24:54,67.001697,194.91276,905.206676,96.975
2088, 11:24:54,67.152699,195.59304,907.600852,96.975
2089, 11:24:54,67.16134,195.991596,909.514915,96.975
2090, 11:24:54,66.98473,195.355705,905.915483,96.975
2091, 11:24:54,66.491832,192.709872,897.915483,96.975
2092, 11:24:54,66.037721,190.260417,889.778409,96.975
2093, 11:24:54,65.844342,188.85973,886.272017,96.975
2094, 11:24:54,65.772885,188.456439,886.414773,96.975
2095, 11:24:54,65.779553,188.483073,886.352983,96.975
2096, 11:24:54,65.792101,188.524976,886.752131,96.975
2097, 11:24:54,65.903961,188.979877,888.677557,96.975
2098, 11:24:54,65.961687,189.383168,888.912642,96.975
2099, 11:24:54,66.036419,189.745147,890.68679,96.975
2100, 11:24:55,66.037879,189.809186,890.926136,96.975
2101, 11:24:55,66.051255,189.852628,891.039062,96.975
2102, 11:24:55,66.052004,190.026278,891.007102,96.975
2103, 11:24:55,66.154711,190.406842,892.62571,96.975
2104, 11:24:55,66.29944,191.078243,894.674006,96.975
2105, 11:24:55,66.394965,191.620028,895.933239,96.975
2106, 11:24:55,66.492148,192.230232,897.958097,96.975
2107, 11:24:55,66.567432,192.620857,899.151278,96.975
2108, 11:24:55,66.629222,193.248935,900.664062,96.975
2109, 11:24:55,66.723682,193.636482,902.080256,96.975
2110, 11:24:55,66.828559,194.10026,902.945312,96.975
2111, 11:24:55,66.893584,194.623935,904.65554,96.975
2112, 11:24:55,66.929688,194.926373,904.223011,96.975
2113, 11:24:55,67.072325,195.573509,907.233665,96.975
2114, 11:24:55,67.119279,196.008878,908.340199,96.975
2115, 11:24:55,67.234059,196.582386,910.389205,96.975
2116, 11:24:55,67.312895,197.020123,910.87642,96.975
2117, 11:24:55,67.389165,197.491832,912.712358,96.975
2118, 11:24:55,67.475971,198.16276,914.556108,96.975
2119, 11:24:55,67.514323,198.581321,915.28054,96.975
2120, 11:24:55,67.616398,199.116714,916.245739,96.975
2121, 11:24:55,67.673335,199.453717,917.68821,96.975
2122, 11:24:55,67.76306,199.998935,919.007812,96.975
2123, 11:24:55,67.85468,200.467448,919.753551,96.975
2124, 11:24:55,67.91351,200.795928,920.923295,96.975
2125, 11:24:55,67.625079,199.915483,916.896307,96.975
2126, 11:24:55,66.929885,196.513613,906.286222,96.975
2127, 11:24:55,66.325402,192.835582,897.053267,96.975
2128, 11:24:55,65.967882,190.425426,889.757102,96.975
2129, 11:24:55,65.85468,189.402107,888.102983,96.975
2130, 11:24:56,65.772017,188.951941,886.700284,96.95
2131, 11:24:56,65.678622,188.587476,885.706676,96.95
2132, 11:24:56,65.694247,188.628196,885.902699,96.95
2133, 11:24:56,65.739583,188.786458,886.71875,96.95
2134, 11:24:56,65.817156,189.072206,887.944602,96.95
2135, 11:24:56,65.794113,189.102983,887.268466,96.95
2136, 11:24:56,65.791548,189.111861,887.364347,96.95
2137, 11:24:56,65.794981,189.09375,887.863636,96.95
2138, 11:24:56,65.852154,189.324455,888.898438,96.95
2139, 11:24:56,65.909485,189.685369,889.473011,96.95
2140, 11:24:56,66.010811,190.095407,890.643466,96.95
2141, 11:24:56,66.142519,190.782197,893.303977,96.95
2142, 11:24:56,66.212989,191.206676,894.086648,96.95
2143, 11:24:56,66.351562,191.769176,895.569602,96.95
2144, 11:24:56,66.407473,192.111624,896.544744,96.95
2145, 11:24:56,66.486861,192.604995,899.368608,96.95
2146, 11:24:56,66.537247,193.028883,899.127841,96.95
2147, 11:24:56,66.598958,193.379261,900.613636,96.95
2148, 11:24:56,66.686277,193.812145,901.759233,96.95
2149, 11:24:56,66.697009,194.047467,902.424006,96.95
2150, 11:24:56,66.826547,194.542614,903.735795,96.95
2151, 11:24:56,66.878235,194.933475,904.606534,96.95
2152, 11:24:56,66.975458,195.462831,905.992898,96.95
2153, 11:24:56,67.063329,195.862334,907.889915,96.95
2154, 11:24:56,67.110953,196.36411,909.153409,96.95
2155, 11:24:56,67.180319,196.807055,910.160511,96.95
2156, 11:24:56,67.213857,197.221591,910.355114,96.95
2157, 11:24:56,67.373027,197.875237,913.106534,96.95
2158, 11:24:56,67.376105,198.075284,913.332386,96.95
2159, 11:24:56,67.063368,196.707623,908.416193,96.95
2160, 11:24:57,66.300742,192.9884,896.53267,96.95
2161, 11:24:57,65.770991,189.525095,887.460227,96.95
2162, 11:24:57,65.401673,187.500473,881.164773,96.95
2163, 11:24:57,65.250237,186.689157,879.365057,96.95
2164, 11:24:57,65.241793,186.660985,879.696023,96.95
2165, 11:24:57,65.224077,186.595052,880.246449,96.95
2166, 11:24:57,65.247475,186.714015,880.142045,96.95
2167, 11:24:57,65.345013,187.08286,882.244318,96.95
2168, 11:24:57,65.389757,187.333097,882.362216,96.95
2169, 11:24:57,65.374487,187.388139,882.181108,96.95
2170, 11:24:57,65.359572,187.267637,881.071733,96.95
2171, 11:24:57,65.384036,187.375592,882.085938,96.95
2172, 11:24:57,65.42803,187.530303,882.727273,96.95
2173, 11:24:57,65.587831,188.100616,885.492898,96.95
2174, 11:24:57,65.683436,188.665838,886.480824,96.95
2175, 11:24:57,65.813013,189.252012,888.78196,96.95
2176, 11:24:57,65.941643,189.785156,890.006392,96.95
2177, 11:24:57,65.999882,190.207505,890.727983,96.95
2178, 11:24:57,66.117582,190.744792,892.099432,96.95
2179, 11:24:57,66.137429,191.08937,893.03054,96.95
2180, 11:24:57,66.284367,191.648082,895.073153,96.95
2181, 11:24:57,66.306108,191.946259,895.77983,96.95
2182, 11:24:57,66.410077,192.483073,897.034801,96.95
2183, 11:24:57,66.46291,192.882102,898.079545,96.95
2184, 11:24:57,66.535077,193.364228,899.199574,96.95
2185, 11:24:57,66.642164,193.861151,901.595881,96.95
2186, 11:24:57,66.696575,194.231297,902.444602,96.95
2187, 11:24:57,66.801807,194.791312,904.767756,96.95
2188, 11:24:57,66.839212,195.197088,904.921165,96.95
2189, 11:24:57,66.990925,195.774384,906.546875,96.95
2190, 11:24:58,67.005642,196.116832,907.257812,96.95
2191, 11:24:58,66.716619,194.956203,902.083807,96.95
2192, 11:24:58,65.996291,191.618608,891.65483,96.95
2193, 11:24:58,65.405777,188.137784,881.957386,96.95
2194, 11:24:58,65.03346,186.182292,876.278409,96.95
2195, 11:24:58,64.868687,185.339962,874.443182,96.95
2196, 11:24:58,64.887232,185.30232,875.566761,96.95
2197, 11:24:58,64.887074,185.390388,875.794034,96.95
2198, 11:24:58,64.937973,185.70928,876.426136,96.95
2199, 11:24:58,65.08065,186.263731,878.965909,96.95
2200, 11:24:58,65.072917,186.401515,878.59375,96.95
2201, 11:24:58,65.055674,186.39098,877.948153,96.95
2202, 11:24:58,65.020518,186.205492,877.772727,96.95
2203, 11:24:58,65.033617,186.205492,877.977273,96.95
2204, 11:24:58,65.073627,186.38518,878.353693,96.95
2205, 11:24:58,65.206242,186.874882,880.612926,96.95
2206, 11:24:58,65.308791,187.425426,881.390625,96.95
2207, 11:24:58,65.448785,187.934422,884.035511,96.95
2208, 11:24:58,65.58645,188.580848,885.959517,96.95
2209, 11:24:58,65.660906,188.985085,886.714489,96.95
2210, 11:24:58,65.775529,189.561908,888.056108,96.95
2211, 11:24:58,65.781368,189.761719,888.408381,96.95
2212, 11:24:58,65.862768,190.140862,889.305398,96.95
2213, 11:24:58,65.954033,190.646662,891.760653,96.95
2214, 11:24:58,65.994831,191.055516,892.583097,96.95
2215, 11:24:58,66.128117,191.642401,894.399858,96.95
2216, 11:24:58,66.051097,191.426491,893.101562,96.95
2217, 11:24:58,65.6134,189.278646,885.447443,96.95
2218, 11:24:58,64.931147,186.163707,875.615767,96.95
2219, 11:24:58,64.463226,183.74858,869.389205,96.95
2220, 11:24:59,64.259075,182.709517,866.274148,96.95
2221, 11:24:59,64.19547,182.507339,866.669034,96.95
2222, 11:24:59,64.238281,182.726681,867.62429,96.95
2223, 11:24:59,64.339765,183.198272,868.823153,96.95
2224, 11:24:59,64.522017,184.012547,870.799716,96.95
2225, 11:24:59,64.583846,184.365175,872.162642,96.95
2226, 11:24:59,64.618213,184.511364,872.588068,96.95
2227, 11:24:59,64.564986,184.462476,870.678267,96.95
2228, 11:24:59,64.594855,184.563447,872.667614,96.95
2229, 11:24:59,64.692629,184.932055,873.944602,96.95
2230, 11:24:59,64.776436,185.300426,874.521307,96.95
2231, 11:24:59,64.987966,186.041548,877.87429,96.95
2232, 11:24:59,65.057213,186.639915,877.487216,96.95
2233, 11:24:59,65.20565,187.249053,880.147727,96.95
2234, 11:24:59,65.304096,187.72242,881.877131,96.95
2235, 11:24:59,65.425032,188.399621,884.647727,96.95
2236, 11:24:59,65.530579,188.881037,885.226562,96.95
2237, 11:24:59,65.593592,189.263258,886.642045,96.95
2238, 11:24:59,65.701586,189.82777,887.628551,96.95
2239, 11:24:59,65.764362,190.128314,888.713068,96.95
2240, 11:24:59,65.825047,190.687737,890.43608,96.95
2241, 11:24:59,65.925702,191.113755,892.199574,96.95
2242, 11:24:59,66.006708,191.59446,893.18892,96.95
2243, 11:24:59,66.148201,192.232008,895.553977,96.95
2244, 11:24:59,66.18821,192.633286,895.862216,96.95
2245, 11:24:59,66.319681,193.244555,898.799716,96.95
2246, 11:24:59,66.352746,193.587121,898.579545,96.95
2247, 11:24:59,66.461569,194.276752,901.271307,96.95
