frame_index,timestamp,R,G,B,average_SpO2
0, 10:28:37,59.375118,206.769768,955.027699,97.975
1, 10:28:37,59.505011,206.810014,954.18679,97.975
2, 10:28:37,59.455887,207.102983,956.541193,97.975
3, 10:28:37,59.552675,207.354048,958.90554,97.975
4, 10:28:37,59.548572,207.641927,959.172585,97.975
5, 10:28:37,59.552675,207.908973,957.044744,97.975
6, 10:28:37,59.497909,207.516927,957.541903,97.975
7, 10:28:37,59.047861,206.565933,951.605824,97.975
8, 10:28:37,58.861111,205.776515,948.923295,97.975
9, 10:28:37,58.8314,205.377723,947.84304,97.975
10, 10:28:37,58.835582,205.255327,948.21946,97.975
11, 10:28:37,58.863991,205.117069,948.029119,97.975
12, 10:28:37,58.848485,205.044508,947.267045,97.975
13, 10:28:37,58.904751,205.074574,947.78267,97.975
14, 10:28:37,58.963778,205.233665,948.421875,97.975
15, 10:28:37,58.977943,205.28563,948.489347,97.975
16, 10:28:37,58.973564,205.316525,948.319602,97.975
17, 10:28:37,58.996725,205.354759,948.68821,97.975
18, 10:28:37,59.024463,205.427557,949.428977,97.975
19, 10:28:37,59.059462,205.58937,950.127131,97.975
20, 10:28:37,59.092053,205.731652,950.330256,97.975
21, 10:28:37,59.11411,205.870739,950.897727,97.975
22, 10:28:37,59.155303,206.068182,951.491477,97.975
23, 10:28:37,59.19401,206.24633,951.759233,97.975
24, 10:28:37,59.221828,206.421638,952.882102,97.975
25, 10:28:37,59.253748,206.654238,953.21804,97.975
26, 10:28:37,59.269926,206.850497,953.191051,97.975
27, 10:28:37,59.331992,207.09304,954.274148,97.975
28, 10:28:37,59.391809,207.434896,955.538352,97.975
29, 10:28:37,59.43896,207.64974,956.568892,97.975
30, 10:28:38,59.453243,207.857836,956.487926,98.0
31, 10:28:38,59.209991,207.022017,950.723011,98.0
32, 10:28:38,59.25726,207.251894,951.079545,98.0
33, 10:28:38,59.301136,207.43608,951.153409,98.0
34, 10:28:38,59.33069,207.714607,952.432528,98.0
35, 10:28:38,59.196812,207.39678,951.139205,98.0
36, 10:28:38,58.793166,206.267282,945.487216,98.0
37, 10:28:38,58.546954,205.181581,942.211648,98.0
38, 10:28:38,58.4927,204.710582,940.337358,98.0
39, 10:28:38,58.511364,204.449337,939.923295,98.0
40, 10:28:38,58.484296,204.181581,939.274148,98.0
41, 10:28:38,58.502328,204.019768,939.095881,98.0
42, 10:28:38,58.530027,203.986387,938.770597,98.0
43, 10:28:38,58.563644,204.012429,939.338778,98.0
44, 10:28:38,58.605271,204.041667,939.948864,98.0
45, 10:28:38,58.58791,204.047822,939.676136,98.0
46, 10:28:38,58.588778,204.003078,939.822443,98.0
47, 10:28:38,58.601286,204.01598,940.107244,98.0
48, 10:28:38,58.633957,204.1192,940.445312,98.0
49, 10:28:38,58.680003,204.254972,941.240057,98.0
50, 10:28:38,58.722498,204.496094,941.453835,98.0
51, 10:28:38,58.76815,204.699811,942.045455,98.0
52, 10:28:38,58.80236,204.908499,942.851562,98.0
53, 10:28:38,58.850182,205.155658,943.556108,98.0
54, 10:28:38,58.890073,205.334044,944.362216,98.0
55, 10:28:38,58.922704,205.503433,944.739347,98.0
56, 10:28:38,58.942156,205.70715,945.288352,98.0
57, 10:28:38,58.975655,205.868253,945.723722,98.0
58, 10:28:38,58.992306,206.109967,946.691051,98.0
59, 10:28:38,59.031684,206.297704,946.996449,98.0
60, 10:28:39,59.084359,206.575521,947.339489,97.75
61, 10:28:39,59.138258,206.856534,948.397727,97.75
62, 10:28:39,59.139717,207.112334,948.463778,97.75
63, 10:28:39,59.193458,207.333215,949.661222,97.75
64, 10:28:39,59.204545,207.367898,949.650568,97.75
65, 10:28:39,58.912563,206.708333,946.232955,97.75
66, 10:28:39,58.491596,205.329901,940.695312,97.75
67, 10:28:39,58.30524,204.382576,937.232955,97.75
68, 10:28:39,58.296599,203.971236,936.631392,97.75
69, 10:28:39,58.340949,203.800781,936.378551,97.75
70, 10:28:39,58.330492,203.602273,936.616477,97.75
71, 10:28:39,58.332426,203.459399,935.946733,97.75
72, 10:28:39,58.377052,203.546875,936.715909,97.75
73, 10:28:39,58.441091,203.658973,936.948153,97.75
74, 10:28:39,58.441998,203.634233,936.74858,97.75
75, 10:28:39,58.427438,203.550781,936.290483,97.75
76, 10:28:39,58.414812,203.533262,936.693892,97.75
77, 10:28:39,58.440735,203.567945,937.06108,97.75
78, 10:28:39,58.462279,203.652462,937.465909,97.75
79, 10:28:39,58.510693,203.815223,937.797585,97.75
80, 10:28:39,58.543797,203.971354,938.47017,97.75
81, 10:28:39,58.595999,204.154948,939.284801,97.75
82, 10:28:39,58.617464,204.328243,939.870028,97.75
83, 10:28:39,58.655106,204.516927,940.121449,97.75
84, 10:28:39,58.672901,204.706203,941.109375,97.75
85, 10:28:39,58.728654,204.959162,941.635653,97.75
86, 10:28:39,58.754656,205.080256,942.421875,97.75
87, 10:28:39,58.792574,205.287287,943.416903,97.75
88, 10:28:39,58.846512,205.47893,943.896307,97.75
89, 10:28:39,58.878196,205.806463,944.412642,97.75
90, 10:28:40,58.912208,205.967685,945.993608,97.775
91, 10:28:40,58.950955,206.281368,946.460938,97.775
92, 10:28:40,58.876933,206.185251,945.796165,97.775
93, 10:28:40,58.451902,205.07919,940.620028,97.775
94, 10:28:40,58.173729,203.833215,935.84304,97.775
95, 10:28:40,58.029317,202.997514,932.752131,97.775
96, 10:28:40,58.025529,202.654238,931.644176,97.775
97, 10:28:40,58.044823,202.520833,931.809659,97.775
98, 10:28:40,58.076547,202.423295,932.130682,97.775
99, 10:28:40,58.103654,202.391927,931.675426,97.775
100, 10:28:40,58.129301,202.483073,932.685369,97.775
101, 10:28:40,58.166469,202.545336,932.857244,97.775
102, 10:28:40,58.158894,202.485204,932.996449,97.775
103, 10:28:40,58.114544,202.405185,932.078835,97.775
104, 10:28:40,58.115333,202.355469,932.607244,97.775
105, 10:28:40,58.144334,202.425426,932.143466,97.775
106, 10:28:40,58.214252,202.674006,933.953125,97.775
107, 10:28:40,58.264165,202.907552,934.539062,97.775
108, 10:28:40,58.317669,203.101207,935.766335,97.775
109, 10:28:40,58.375434,203.34742,935.729403,97.775
110, 10:28:40,58.387271,203.479522,936.766335,97.775
111, 10:28:40,58.389205,203.625947,936.440341,97.775
112, 10:28:40,58.429175,203.790365,937.466619,97.775
113, 10:28:40,58.448666,203.963423,937.706676,97.775
114, 10:28:40,58.508168,204.24562,938.638494,97.775
115, 10:28:40,58.554135,204.485795,939.792614,97.775
116, 10:28:40,58.60977,204.75071,939.947443,97.775
117, 10:28:40,58.684817,205.180398,941.786932,97.775
118, 10:28:40,58.746094,205.438565,943.057528,97.775
119, 10:28:40,58.781526,205.716738,943.93679,97.775
120, 10:28:41,58.671993,205.565696,942.112926,98.025
121, 10:28:41,58.201862,204.264678,936.051136,98.025
122, 10:28:41,57.835346,202.764086,930.209517,98.025
123, 10:28:41,57.735638,201.874053,927.943182,98.025
124, 10:28:41,57.689276,201.399266,926.267756,98.025
125, 10:28:41,57.701034,201.182647,926.203835,98.025
126, 10:28:41,57.685882,200.953954,925.862926,98.025
127, 10:28:41,57.696023,200.828125,925.727273,98.025
128, 10:28:41,57.725063,200.898674,926.161932,98.025
129, 10:28:41,57.759549,200.928267,926.791193,98.025
130, 10:28:41,57.761561,200.900213,926.867188,98.025
131, 10:28:41,57.748895,200.83428,926.045455,98.025
132, 10:28:41,57.767716,200.854759,926.355824,98.025
133, 10:28:41,57.79431,200.958688,926.362926,98.025
134, 10:28:41,57.848643,201.162879,927.795455,98.025
135, 10:28:41,57.904159,201.39098,928.28054,98.025
136, 10:28:41,57.964844,201.590554,929.370028,98.025
137, 10:28:41,58.022057,201.775923,930.368608,98.025
138, 10:28:41,58.048019,201.934304,930.537642,98.025
139, 10:28:41,58.082584,202.122751,930.955256,98.025
140, 10:28:41,58.137232,202.395123,932.671875,98.025
141, 10:28:41,58.190735,202.710938,933.078125,98.025
142, 10:28:41,58.229995,202.919626,934.307528,98.025
143, 10:28:41,58.279119,203.209517,935.140625,98.025
144, 10:28:41,58.321693,203.437145,936.256392,98.025
145, 10:28:41,58.386995,203.723485,936.428977,98.025
146, 10:28:41,58.44839,204.041667,937.542614,98.025
147, 10:28:41,58.48986,204.304806,938.240767,98.025
148, 10:28:41,58.51819,204.604759,939.148438,98.025
149, 10:28:41,58.292732,204.028764,936.007812,98.025
150, 10:28:42,57.807252,202.50367,929.669744,98.025
151, 10:28:42,57.498816,201.002604,924.566761,98.025
152, 10:28:42,57.390664,200.254853,921.929688,98.025
153, 10:28:42,57.373816,199.902699,920.742898,98.025
154, 10:28:42,57.352628,199.538944,921.097301,98.025
155, 10:28:42,57.295139,199.176136,918.974432,98.025
156, 10:28:42,57.323706,199.128788,919.920455,98.025
157, 10:28:42,57.364583,199.216383,920.045455,98.025
158, 10:28:42,57.405106,199.30812,921.129972,98.025
159, 10:28:42,57.406053,199.277817,921.090199,98.025
160, 10:28:42,57.393387,199.253551,921.066761,98.025
161, 10:28:42,57.404908,199.270597,920.87642,98.025
162, 10:28:42,57.433791,199.363873,921.708807,98.025
163, 10:28:42,57.487808,199.497041,921.610085,98.025
164, 10:28:42,57.557568,199.803385,922.945312,98.025
165, 10:28:42,57.589607,200.008404,923.414062,98.025
166, 10:28:42,57.644886,200.201705,924.835227,98.025
167, 10:28:42,57.738715,200.585938,926.021307,98.025
168, 10:28:42,57.772648,200.757812,926.572443,98.025
169, 10:28:42,57.811908,201.053149,927.003551,98.025
170, 10:28:42,57.854048,201.281368,927.458097,98.025
171, 10:28:42,57.930358,201.718632,929.283381,98.025
172, 10:28:42,57.98473,201.944247,930.335938,98.025
173, 10:28:42,58.049598,202.238755,931.168324,98.025
174, 10:28:42,58.10685,202.472538,932.53125,98.025
175, 10:28:42,58.189315,202.791903,933.399148,98.025
176, 10:28:42,58.248343,203.149384,934.401989,98.025
177, 10:28:42,58.274858,203.381866,935.427557,98.025
178, 10:28:42,58.012784,202.820549,932.292614,98.025
179, 10:28:42,57.500789,201.253788,924.326705,98.025
180, 10:28:43,57.236151,199.880327,920.378551,98.025
181, 10:28:43,57.159091,199.199337,918.3125,98.025
182, 10:28:43,57.139283,198.897017,917.617898,98.025
183, 10:28:43,57.135732,198.677083,917.048295,98.025
184, 10:28:43,57.149108,198.53492,917.712358,98.025
185, 10:28:43,57.187855,198.5683,917.884233,98.025
186, 10:28:43,57.233428,198.632576,918.244318,98.025
187, 10:28:43,57.222183,198.56759,917.769176,98.025
188, 10:28:43,57.215712,198.519295,918.323153,98.025
189, 10:28:43,57.208018,198.497633,918.107955,98.025
190, 10:28:43,57.229561,198.575047,918.515625,98.025
191, 10:28:43,57.290009,198.733191,919.393466,98.025
192, 10:28:43,57.316406,198.915601,919.303267,98.025
193, 10:28:43,57.376342,199.104403,919.913352,98.025
194, 10:28:43,57.42223,199.330137,921.026278,98.025
195, 10:28:43,57.498185,199.631866,921.964489,98.025
196, 10:28:43,57.552754,199.854285,922.918324,98.025
197, 10:28:43,57.609138,200.088778,923.805398,98.025
198, 10:28:43,57.641375,200.311435,925.269176,98.025
199, 10:28:43,57.705887,200.576468,925.68608,98.025
200, 10:28:43,57.758996,200.881155,926.1875,98.025
201, 10:28:43,57.833846,201.195668,927.588778,98.025
202, 10:28:43,57.889165,201.477154,928.851562,98.025
203, 10:28:43,57.959359,201.777699,929.984375,98.025
204, 10:28:43,57.921086,201.870265,929.559659,98.025
205, 10:28:43,57.495699,200.695904,923.539062,98.025
206, 10:28:43,57.069997,199.134233,917.609375,98.025
207, 10:28:43,56.900095,198.08428,913.539773,98.025
208, 10:28:43,56.826349,197.465791,913.465199,98.025
209, 10:28:43,56.826468,197.266809,913.098011,98.025
210, 10:28:44,56.844579,197.118016,913.060369,98.0
211, 10:28:44,56.846078,197.067116,912.672585,98.0
212, 10:28:44,56.898003,197.116359,913.039062,98.0
213, 10:28:44,56.940538,197.195668,913.049006,98.0
214, 10:28:44,56.931621,197.20348,913.340199,98.0
215, 10:28:44,56.917653,197.045573,913.066051,98.0
216, 10:28:44,56.952573,197.114347,913.518466,98.0
217, 10:28:44,56.967251,197.239347,913.615057,98.0
218, 10:28:44,57.034801,197.496449,915.231534,98.0
219, 10:28:44,57.084793,197.696141,915.733665,98.0
220, 10:28:44,57.182134,198.044508,917.150568,98.0
221, 10:28:44,57.245541,198.358783,917.462358,98.0
222, 10:28:44,57.28997,198.59955,919.043324,98.0
223, 10:28:44,57.34521,198.873224,919.884233,98.0
224, 10:28:44,57.383247,199.104759,920.605824,98.0
225, 10:28:44,57.438486,199.391217,921.003551,98.0
226, 10:28:44,57.509785,199.702178,922.139205,98.0
227, 10:28:44,57.544508,199.875947,923.090909,98.0
228, 10:28:44,57.603733,200.173414,924.290483,98.0
229, 10:28:44,57.659012,200.489347,924.887784,98.0
230, 10:28:44,57.773753,200.955256,926.944602,98.0
231, 10:28:44,57.774463,201.04072,926.485795,98.0
232, 10:28:44,57.495541,200.393348,923.377131,98.0
233, 10:28:44,56.994239,198.658854,916.052557,98.0
234, 10:28:44,56.650647,197.123343,911.009943,98.0
235, 10:28:44,56.497633,196.069129,907.616477,98.0
236, 10:28:44,56.497317,195.522727,906.863636,98.0
237, 10:28:44,56.454545,195.081439,905.835227,98.0
238, 10:28:44,56.421717,194.746686,905.852273,98.0
239, 10:28:44,56.442866,194.631155,905.917614,98.0
240, 10:28:45,56.4695,194.69401,906.090199,97.975
241, 10:28:45,56.481692,194.686553,905.866477,97.975
242, 10:28:45,56.478614,194.608191,906.333807,97.975
243, 10:28:45,56.464094,194.560369,905.93892,97.975
244, 10:28:45,56.462358,194.592093,906.296875,97.975
245, 10:28:45,56.544231,194.708452,906.239347,97.975
246, 10:28:45,56.606376,194.944129,907.150568,97.975
247, 10:28:45,56.676334,195.155895,908.046165,97.975
248, 10:28:45,56.692866,195.473958,909.485795,97.975
249, 10:28:45,56.764126,195.725142,910.00142,97.975
250, 10:28:45,56.842527,196.056463,911.645597,97.975
251, 10:28:45,56.91639,196.365649,912.361506,97.975
252, 10:28:45,56.961687,196.622277,913.12571,97.975
253, 10:28:45,57.02324,196.967448,914.074574,97.975
254, 10:28:45,57.075481,197.224077,914.424006,97.975
255, 10:28:45,57.142401,197.53705,915.460938,97.975
256, 10:28:45,57.205216,197.895952,916.958097,97.975
257, 10:28:45,57.29139,198.245857,918.114347,97.975
258, 10:28:45,57.323903,198.512429,919.233665,97.975
259, 10:28:45,57.308081,198.662879,918.431818,97.975
260, 10:28:45,56.925742,197.622869,913.90483,97.975
261, 10:28:45,56.446733,195.810369,906.828125,97.975
262, 10:28:45,56.21078,194.34446,903.473011,97.975
263, 10:28:45,56.118568,193.540365,901.932528,97.975
264, 10:28:45,56.089923,193.032552,900.456676,97.975
265, 10:28:45,56.083649,192.764205,900.292614,97.975
266, 10:28:45,56.08432,192.506747,899.864347,97.975
267, 10:28:45,56.1061,192.507694,900.230824,97.975
268, 10:28:45,56.150016,192.505919,900.203125,97.975
269, 10:28:45,56.152817,192.490175,899.921165,97.975
270, 10:28:46,56.14607,192.408381,900.757102,97.975
271, 10:28:46,56.137981,192.421993,900.793324,97.975
272, 10:28:46,56.174637,192.530066,900.77983,97.975
273, 10:28:46,56.212516,192.58215,900.924716,97.975
274, 10:28:46,56.273911,192.870975,902.316761,97.975
275, 10:28:46,56.355232,193.08937,902.828835,97.975
276, 10:28:46,56.396504,193.445668,904.287642,97.975
277, 10:28:46,56.452415,193.655066,903.771307,97.975
278, 10:28:46,56.501894,193.90483,905.411932,97.975
279, 10:28:46,56.525055,194.233783,906.456676,97.975
280, 10:28:46,56.602154,194.511482,907.730824,97.975
281, 10:28:46,56.64169,194.821378,908.138494,97.975
282, 10:28:46,56.713344,195.122514,909.033381,97.975
283, 10:28:46,56.763376,195.319957,909.064631,97.975
284, 10:28:46,56.856218,195.657197,911.230114,97.975
285, 10:28:46,56.88443,195.914654,911.419744,97.975
286, 10:28:46,56.889875,196.048414,911.477983,97.975
287, 10:28:46,56.549637,195.139915,907.387784,97.975
288, 10:28:46,56.074416,193.296165,900.853693,97.975
289, 10:28:46,55.810724,191.884351,896.382812,97.975
290, 10:28:46,55.694444,191.01089,894.173295,97.975
291, 10:28:46,55.711648,190.566761,893.857955,97.975
292, 10:28:46,55.692393,190.168087,892.988636,97.975
293, 10:28:46,55.700718,190.02545,892.46804,97.975
294, 10:28:46,55.727628,190.020005,893.128551,97.975
295, 10:28:46,55.728338,189.964844,892.925426,97.975
296, 10:28:46,55.707268,189.841027,892.526278,97.975
297, 10:28:46,55.649424,189.527817,891.578835,97.975
298, 10:28:46,55.633602,189.454309,891.882102,97.975
299, 10:28:46,55.653015,189.5116,891.859375,97.975
300, 10:28:47,55.696615,189.647135,892.189631,97.975
301, 10:28:47,55.75292,189.845881,893.200284,97.975
302, 10:28:47,55.800466,189.95206,893.448153,97.975
303, 10:28:47,55.837042,190.138021,894.481534,97.975
304, 10:28:47,55.875908,190.34884,895.064631,97.975
305, 10:28:47,55.924598,190.594342,895.574574,97.975
306, 10:28:47,55.956439,190.765152,896.034091,97.975
307, 10:28:47,55.993095,190.976918,896.790483,97.975
308, 10:28:47,56.067393,191.338068,899.085227,97.975
309, 10:28:47,56.117266,191.47822,898.559659,97.975
310, 10:28:47,56.112887,191.793679,899.122869,97.975
311, 10:28:47,56.014244,191.460819,897.830256,97.975
312, 10:28:47,55.578796,189.850024,891.270597,97.975
313, 10:28:47,55.184501,188.004735,884.696023,97.975
314, 10:28:47,54.999882,186.707505,881.137074,97.975
315, 10:28:47,54.918758,186.08724,880.102983,97.975
316, 10:28:47,54.881392,185.674006,878.742898,97.975
317, 10:28:47,54.838818,185.289181,877.797585,97.975
318, 10:28:47,54.852352,185.287169,878.637784,97.975
319, 10:28:47,54.888652,185.33215,878.75142,97.975
320, 10:28:47,54.882615,185.359493,879.040483,97.975
321, 10:28:47,54.867661,185.278172,878.37358,97.975
322, 10:28:47,54.855193,185.214725,878.839489,97.975
323, 10:28:47,54.895399,185.284683,878.722301,97.975
324, 10:28:47,54.949021,185.535985,879.301136,97.975
325, 10:28:47,54.994713,185.696259,880.546875,97.975
326, 10:28:47,55.08649,186.104167,882.065341,97.975
327, 10:28:47,55.14899,186.382102,882.826705,97.975
328, 10:28:47,55.227549,186.772135,884.377131,97.975
329, 10:28:47,55.271504,187.015743,884.986506,97.975
330, 10:28:48,55.354127,187.23473,886.044744,97.95
331, 10:28:48,55.396228,187.549006,886.68608,97.95
332, 10:28:48,55.457229,187.830019,887.872159,97.95
333, 10:28:48,55.518466,188.127841,888.988636,97.95
334, 10:28:48,55.598327,188.46875,890.403409,97.95
335, 10:28:48,55.688486,188.849077,891.074574,97.95
336, 10:28:48,55.597893,188.674361,890.009233,97.95
337, 10:28:48,55.162524,187.227154,883.777699,97.95
338, 10:28:48,54.733389,185.276397,876.604403,97.95
339, 10:28:48,54.508168,183.83795,872.510653,97.95
340, 10:28:48,54.421599,183.053149,870.350142,97.95
341, 10:28:48,54.319642,182.372751,868.705256,97.95
342, 10:28:48,54.254577,181.901989,867.4375,97.95
343, 10:28:48,54.224156,181.77758,866.818892,97.95
344, 10:28:48,54.296046,181.918442,867.854403,97.95
345, 10:28:48,54.32343,182.064512,868.213778,97.95
346, 10:28:48,54.338344,182.180279,868.789062,97.95
347, 10:28:48,54.359375,182.175663,869.133523,97.95
348, 10:28:48,54.412287,182.32919,869.977983,97.95
349, 10:28:48,54.491793,182.702652,871.278409,97.95
350, 10:28:48,54.570707,182.931345,872.965909,97.95
351, 10:28:48,54.638771,183.313092,873.611506,97.95
352, 10:28:48,54.736664,183.85393,875.075284,97.95
353, 10:28:48,54.801373,184.15554,876.15483,97.95
354, 10:28:48,54.850734,184.53705,877.301847,97.95
355, 10:28:48,54.950758,185.039773,878.082386,97.95
356, 10:28:48,55.022767,185.39169,880.131392,97.95
357, 10:28:48,55.104285,185.869673,881.533381,97.95
358, 10:28:48,55.226444,186.30812,883.720881,97.95
359, 10:28:48,55.305832,186.731416,884.868608,97.95
360, 10:28:49,55.381747,187.198745,886.493608,97.95
361, 10:28:49,55.517637,187.612571,887.882812,97.95
362, 10:28:49,55.417259,187.584162,887.019176,97.95
363, 10:28:49,55.022372,186.221946,880.808949,97.95
364, 10:28:49,54.6061,184.380327,874.151278,97.95
365, 10:28:49,54.421914,183.037524,870.066051,97.95
366, 10:28:49,54.344105,182.388376,869.080256,97.95
367, 10:28:49,54.287682,181.971946,867.715199,97.95
368, 10:28:49,54.230508,181.678267,866.848011,97.95
369, 10:28:49,54.244555,181.603456,867.160511,97.95
370, 10:28:49,54.307805,181.864702,868.941051,97.95
371, 10:28:49,54.365017,182.076113,869.044744,97.95
372, 10:28:49,54.350142,182.209517,868.578125,97.95
373, 10:28:49,54.389283,182.317945,869.603693,97.95
374, 10:28:49,54.422427,182.498816,870.299716,97.95
375, 10:28:49,54.522767,182.86849,871.049006,97.95
376, 10:28:49,54.583254,183.242188,872.683239,97.95
377, 10:28:49,54.672704,183.620857,873.784801,97.95
378, 10:28:49,54.780303,184.065341,875.860795,97.95
379, 10:28:49,54.83357,184.512547,876.828125,97.95
380, 10:28:49,54.909249,184.848011,878.386364,97.95
381, 10:28:49,54.973011,185.191288,879.258523,97.95
382, 10:28:49,55.060882,185.656605,880.482244,97.95
383, 10:28:49,55.124842,186.014678,881.522727,97.95
384, 10:28:49,55.207978,186.412287,883.266335,97.95
385, 10:28:49,55.315104,186.927794,885.012784,97.95
386, 10:28:49,55.401634,187.311435,886.752131,97.95
387, 10:28:49,55.488321,187.742424,887.801136,97.95
388, 10:28:49,55.455848,187.836766,887.691051,97.95
389, 10:28:49,55.104798,186.823864,882.306818,97.95
390, 10:28:50,54.732639,185.278409,877.196023,97.975
391, 10:28:50,54.575284,184.257102,873.866477,97.975
392, 10:28:50,54.503906,183.704427,872.777699,97.975
393, 10:28:50,54.502841,183.622633,872.46875,97.975
394, 10:28:50,54.489781,183.503906,871.975142,97.975
395, 10:28:50,54.53851,183.602746,872.684659,97.975
396, 10:28:50,54.622041,183.881747,873.96946,97.975
397, 10:28:50,54.628906,184.105469,874.078835,97.975
398, 10:28:50,54.619358,184.186198,874.06321,97.975
399, 10:28:50,54.641335,184.253078,874.754261,97.975
400, 10:28:50,54.716974,184.580848,875.695312,97.975
401, 10:28:50,54.80161,184.954072,877.821023,97.975
402, 10:28:50,54.873382,185.335582,878.899858,97.975
403, 10:28:50,54.942393,185.830019,879.014205,97.975
404, 10:28:50,55.049006,186.222775,880.90767,97.975
405, 10:28:50,55.147648,186.725142,882.214489,97.975
406, 10:28:50,55.229246,187.140388,884.49858,97.975
407, 10:28:50,55.312066,187.55599,885.68821,97.975
408, 10:28:50,55.408065,187.960464,887.822443,97.975
409, 10:28:50,55.487808,188.342211,888.729403,97.975
410, 10:28:50,55.567985,188.841264,890.581676,97.975
411, 10:28:50,55.660393,189.264323,891.412642,97.975
412, 10:28:50,55.748027,189.748343,892.757102,97.975
413, 10:28:50,55.751618,190.02758,892.966619,97.975
414, 10:28:50,55.481652,189.343632,890.223722,97.975
415, 10:28:50,55.130642,188.103101,884.635653,97.975
416, 10:28:50,54.946378,187.210819,881.762074,97.975
417, 10:28:50,54.897293,186.833925,881.290483,97.975
418, 10:28:50,54.902304,186.672822,881.002841,97.975
419, 10:28:50,54.867858,186.484257,880.459517,97.975
420, 10:28:51,54.899345,186.567353,880.867188,97.975
421, 10:28:51,55.004025,186.913589,882.262784,97.975
422, 10:28:51,55.023832,187.061553,882.389205,97.975
423, 10:28:51,55.060764,187.236269,883.122159,97.975
424, 10:28:51,55.072877,187.37867,883.428267,97.975
425, 10:28:51,55.096591,187.549242,883.943182,97.975
426, 10:28:51,55.163471,187.809541,884.519176,97.975
427, 10:28:51,55.267243,188.300781,886.722301,97.975
428, 10:28:51,55.329703,188.593277,888.119318,97.975
429, 10:28:51,55.406487,189.056108,888.981534,97.975
430, 10:28:51,55.524227,189.582623,891.603693,97.975
431, 10:28:51,55.576744,189.85902,891.852983,97.975
432, 10:28:51,55.655934,190.361742,893.903409,97.975
433, 10:28:51,55.72605,190.725497,894.53196,97.975
434, 10:28:51,55.772964,191.170218,895.478693,97.975
435, 10:28:51,55.852865,191.573272,897.064631,97.975
436, 10:28:51,55.95419,192.045336,898.911222,97.975
437, 10:28:51,56.026318,192.414654,899.720881,97.975
438, 10:28:51,56.10977,192.87429,901.649148,97.975
439, 10:28:51,56.210346,193.391927,902.948153,97.975
440, 10:28:51,56.218908,193.672822,903.255682,97.975
441, 10:28:51,55.998027,193.139441,899.865057,97.975
442, 10:28:51,55.597893,191.918679,894.864347,97.975
443, 10:28:51,55.392835,190.992424,892.025568,97.975
444, 10:28:51,55.340002,190.555043,891.114347,97.975
445, 10:28:51,55.308081,190.307292,889.872159,97.975
446, 10:28:51,55.281013,190.101089,890.044034,97.975
447, 10:28:51,55.264086,190.01527,889.577415,97.975
448, 10:28:51,55.305634,190.055161,890.507102,97.975
449, 10:28:51,55.384509,190.301255,891.378551,97.975
450, 10:28:52,55.394176,190.447206,891.413352,97.975
451, 10:28:52,55.409604,190.567827,891.62571,97.975
452, 10:28:52,55.447128,190.659564,892.494318,97.975
453, 10:28:52,55.479324,190.862216,892.392045,97.975
454, 10:28:52,55.546007,191.180634,893.742898,97.975
455, 10:28:52,55.624329,191.519295,894.598722,97.975
456, 10:28:52,55.691446,191.859375,896.963068,97.975
457, 10:28:52,55.753314,192.174242,897.590909,97.975
458, 10:28:52,55.858546,192.569484,899.414062,97.975
459, 10:28:52,55.915443,192.974077,900.449574,97.975
460, 10:28:52,55.968355,193.254025,901.600852,97.975
461, 10:28:52,56.037445,193.582978,901.921165,97.975
462, 10:28:52,56.140309,194.073864,903.755682,97.975
463, 10:28:52,56.203993,194.384233,904.129261,97.975
464, 10:28:52,56.287997,194.791548,905.402699,97.975
465, 10:28:52,56.32489,195.210938,905.916193,97.975
466, 10:28:52,56.427636,195.578835,908.09233,97.975
467, 10:28:52,56.485125,195.935488,907.607244,97.975
468, 10:28:52,56.585267,196.335819,909.816051,97.975
469, 10:28:52,56.563408,196.418916,909.959517,97.975
470, 10:28:52,56.215041,195.587831,906.583807,97.975
471, 10:28:52,55.846394,194.35973,900.965199,97.975
472, 10:28:52,55.717487,193.619318,899.042614,97.975
473, 10:28:52,55.674164,193.272017,897.961648,97.975
474, 10:28:52,55.684777,193.053385,898.095881,97.975
475, 10:28:52,55.679569,192.837476,897.129972,97.975
476, 10:28:52,55.680437,192.780895,897.335938,97.975
477, 10:28:52,55.733231,192.884351,897.493608,97.975
478, 10:28:52,55.789339,193.073982,898.90696,97.975
479, 10:28:52,55.794744,193.118134,898.853693,97.975
480, 10:28:53,55.802754,193.135535,899.986506,97.975
481, 10:28:53,55.808199,193.164654,899.683949,97.975
482, 10:28:53,55.859375,193.464489,900.085227,97.975
483, 10:28:53,55.931542,193.819247,901.472301,97.975
484, 10:28:53,56.001144,194.111861,901.918324,97.975
485, 10:28:53,56.079309,194.404119,903.294034,97.975
486, 10:28:53,56.161103,194.682647,904.331676,97.975
487, 10:28:53,56.249408,195.073035,906.335938,97.975
488, 10:28:53,56.293718,195.315814,907.09375,97.975
489, 10:28:53,56.363479,195.647254,907.875,97.975
490, 10:28:53,56.387587,195.890033,908.06179,97.975
491, 10:28:53,56.473919,196.25651,909.590199,97.975
492, 10:28:53,56.53488,196.571496,910.559659,97.975
493, 10:28:53,56.587792,196.813092,910.989347,97.975
494, 10:28:53,56.685211,197.248816,912.25142,97.975
495, 10:28:53,56.733902,197.525568,913.448864,97.975
496, 10:28:53,56.781645,197.952415,913.399148,97.975
497, 10:28:53,56.877328,198.257931,915.757812,97.975
498, 10:28:53,56.785038,198.099432,914.261364,97.975
499, 10:28:53,56.373816,196.924479,907.990057,97.975
500, 10:28:53,56.066367,195.759706,904.882102,97.975
501, 10:28:53,55.973288,195.128196,902.752131,97.975
502, 10:28:53,55.986979,194.971828,903.745739,97.975
503, 10:28:53,55.986703,194.761245,903.377131,97.975
504, 10:28:53,56.011087,194.669626,903.770597,97.975
505, 10:28:53,56.043521,194.706321,903.59304,97.975
506, 10:28:53,56.093198,194.839725,904.268466,97.975
507, 10:28:53,56.113479,194.904356,904.269886,97.975
508, 10:28:53,56.109336,194.935488,904.808949,97.975
509, 10:28:53,56.112926,194.941998,903.242898,97.975
510, 10:28:54,56.160432,195.091619,904.742898,97.975
511, 10:28:54,56.217172,195.297348,905.346591,97.975
512, 10:28:54,56.282079,195.521425,906.716619,97.975
513, 10:28:54,56.347301,195.767756,907.080966,97.975
514, 10:28:54,56.409407,196.058712,908.113636,97.975
515, 10:28:54,56.477667,196.325994,909.191761,97.975
516, 10:28:54,56.542653,196.58724,910.253551,97.975
517, 10:28:54,56.581795,196.822088,911.347301,97.975
518, 10:28:54,56.607165,197.026042,911.210227,97.975
519, 10:28:54,56.703243,197.385772,913.152699,97.975
520, 10:28:54,56.774029,197.67152,913.75071,97.975
521, 10:28:54,56.809738,197.988873,914.799716,97.975
522, 10:28:54,56.904948,198.313802,916.172585,97.975
523, 10:28:54,56.945115,198.531842,916.370028,97.975
524, 10:28:54,57.035275,199.009233,918.47017,97.975
525, 10:28:54,56.998501,199.027225,917.598011,97.975
526, 10:28:54,56.592764,197.910866,912.229403,97.975
527, 10:28:54,56.165246,196.530777,906.548295,97.975
528, 10:28:54,56.041075,195.592921,903.475142,97.975
529, 10:28:54,56.017401,195.20277,902.691051,97.975
530, 10:28:54,56.013968,194.877604,903.879261,97.975
531, 10:28:54,56.020084,194.71366,903.15696,97.975
532, 10:28:54,56.036971,194.636482,903.137074,97.975
533, 10:28:54,56.078007,194.697088,903.546165,97.975
534, 10:28:54,56.127289,194.83357,904.478693,97.975
535, 10:28:54,56.124645,194.88956,904.294744,97.975
536, 10:28:54,56.143387,194.877604,904.615057,97.975
537, 10:28:54,56.153409,194.900568,904.397727,97.975
538, 10:28:54,56.195273,195.025213,905.026278,97.975
539, 10:28:54,56.282158,195.280185,906.212358,97.975
540, 10:28:55,56.354206,195.54652,907.148438,98.0
541, 10:28:55,56.397254,195.820076,907.644886,98.0
542, 10:28:55,56.469815,196.122988,908.769176,98.0
543, 10:28:55,56.516809,196.361032,909.370739,98.0
544, 10:28:55,56.588305,196.658854,911.569602,98.0
545, 10:28:55,56.632497,196.928741,911.535511,98.0
546, 10:28:55,56.702139,197.200639,912.854403,98.0
547, 10:28:55,56.767558,197.484967,913.943892,98.0
548, 10:28:55,56.822838,197.831676,915.21733,98.0
549, 10:28:55,56.898003,198.074692,915.513494,98.0
550, 10:28:55,56.96078,198.421638,916.15767,98.0
551, 10:28:55,57.033026,198.792732,917.15696,98.0
552, 10:28:55,57.119713,199.110559,918.524148,98.0
553, 10:28:55,57.136245,199.349077,919.364347,98.0
554, 10:28:55,56.974235,198.988045,917.539062,98.0
555, 10:28:55,56.462555,197.436908,909.772017,98.0
556, 10:28:55,56.164615,195.976326,904.900568,98.0
557, 10:28:55,56.050821,195.19839,903.997159,98.0
558, 10:28:55,56.009233,194.700521,903.12642,98.0
559, 10:28:55,55.99854,194.478101,902.365767,98.0
560, 10:28:55,56.001263,194.21875,903.528409,98.0
561, 10:28:55,55.997041,194.131747,901.904119,98.0
562, 10:28:55,56.025489,194.162169,902.637784,98.0
563, 10:28:55,56.058239,194.166667,902.357955,98.0
564, 10:28:55,56.085069,194.225852,903.161932,98.0
565, 10:28:55,56.107165,194.29072,902.951705,98.0
566, 10:28:55,56.100221,194.328125,903.460227,98.0
567, 10:28:55,56.185606,194.520833,904.014205,98.0
568, 10:28:55,56.277659,194.854285,906.193892,98.0
569, 10:28:55,56.358231,195.078954,906.067472,98.0
570, 10:28:56,56.399503,195.382694,907.651278,98.0
571, 10:28:56,56.464173,195.665246,908.815341,98.0
572, 10:28:56,56.528961,195.932055,909.535511,98.0
573, 10:28:56,56.617661,196.330256,910.34517,98.0
574, 10:28:56,56.676847,196.624763,911.708807,98.0
575, 10:28:56,56.752604,196.986506,912.18608,98.0
576, 10:28:56,56.825166,197.386955,913.943892,98.0
577, 10:28:56,56.875079,197.646544,914.708807,98.0
578, 10:28:56,56.977194,197.990294,916.214489,98.0
579, 10:28:56,57.033144,198.289299,917.136364,98.0
580, 10:28:56,57.130761,198.726089,917.947443,98.0
581, 10:28:56,57.196378,199.085346,919.03196,98.0
582, 10:28:56,57.233073,199.278764,920.269176,98.0
583, 10:28:56,56.931108,198.593987,915.208807,98.0
584, 10:28:56,56.437105,196.93679,908.683239,98.0
585, 10:28:56,56.163037,195.653409,904.650568,98.0
586, 10:28:56,56.074692,194.927202,903.227983,98.0
587, 10:28:56,56.069208,194.669271,902.191761,98.0
588, 10:28:56,56.05958,194.432055,902.856534,98.0
589, 10:28:56,56.064907,194.186198,901.824574,98.0
590, 10:28:56,56.124408,194.264796,902.747869,98.0
591, 10:28:56,56.186553,194.452652,903.894886,98.0
592, 10:28:56,56.184501,194.391572,904.4375,98.0
593, 10:28:56,56.168048,194.408973,903.700994,98.0
594, 10:28:56,56.166667,194.384943,903.178977,98.0
595, 10:28:56,56.204861,194.482481,903.519886,98.0
596, 10:28:56,56.271622,194.732008,905.886364,98.0
597, 10:28:56,56.321891,194.956676,905.96733,98.0
598, 10:28:56,56.417614,195.315814,907.017045,98.0
599, 10:28:56,56.542337,195.788944,909.097301,98.0
600, 10:28:57,56.584044,196.055161,909.370739,98.025
601, 10:28:57,56.677951,196.405066,911.103693,98.025
602, 10:28:57,56.71074,196.646899,911.995028,98.025
603, 10:28:57,56.783223,196.987926,911.955966,98.025
604, 10:28:57,56.867819,197.288589,914.00142,98.025
605, 10:28:57,56.942314,197.654593,914.632102,98.025
606, 10:28:57,56.986821,197.983191,915.183239,98.025
607, 10:28:57,57.055634,198.342093,916.609375,98.025
608, 10:28:57,57.136364,198.636364,917.423295,98.025
609, 10:28:57,57.19405,198.966619,918.81392,98.025
610, 10:28:57,57.046165,198.715199,917.285511,98.025
611, 10:28:57,56.551057,197.172112,910.231534,98.025
612, 10:28:57,56.219066,195.730587,906.286932,98.025
613, 10:28:57,56.100418,194.954664,903.051847,98.025
614, 10:28:57,56.120541,194.726681,903.504972,98.025
615, 10:28:57,56.15992,194.625118,903.87571,98.025
616, 10:28:57,56.176649,194.600971,903.855824,98.025
617, 10:28:57,56.217842,194.697088,903.912642,98.025
618, 10:28:57,56.263613,194.843868,904.730824,98.025
619, 10:28:57,56.299558,194.92661,905.596591,98.025
620, 10:28:57,56.263139,194.893584,905.120028,98.025
621, 10:28:57,56.296441,194.974077,905.426847,98.025
622, 10:28:57,56.332386,195.054924,906.127841,98.025
623, 10:28:57,56.418245,195.29214,906.588068,98.025
624, 10:28:57,56.479088,195.512547,907.910511,98.025
625, 10:28:57,56.551215,195.870975,909.416193,98.025
626, 10:28:57,56.620541,196.164181,910.175426,98.025
627, 10:28:57,56.693655,196.535985,911.002841,98.025
628, 10:28:57,56.771504,196.850024,912.324574,98.025
629, 10:28:57,56.829467,197.110085,912.947443,98.025
630, 10:28:58,56.894965,197.432055,913.768466,98.025
631, 10:28:58,56.927438,197.626539,914.270597,98.025
632, 10:28:58,56.995344,197.991241,915.71733,98.025
633, 10:28:58,57.125631,198.48911,917.977273,98.025
634, 10:28:58,57.210622,198.866714,918.589489,98.025
635, 10:28:58,57.266888,199.102273,919.650568,98.025
636, 10:28:58,57.062737,198.689157,917.62642,98.025
637, 10:28:58,56.479995,196.95277,910.159801,98.025
638, 10:28:58,56.144926,195.377486,904.020597,98.025
639, 10:28:58,56.013258,194.389678,901.84375,98.025
640, 10:28:58,55.982955,193.930398,901.710227,98.025
641, 10:28:58,55.971275,193.573864,900.627841,98.025
642, 10:28:58,55.952494,193.358902,900.357955,98.025
643, 10:28:58,55.988676,193.373698,900.174006,98.025
644, 10:28:58,56.056266,193.545691,901.359375,98.025
645, 10:28:58,56.096196,193.60535,901.615057,98.025
646, 10:28:58,56.08361,193.607836,901.240767,98.025
647, 10:28:58,56.091619,193.564631,901.893466,98.025
648, 10:28:58,56.129893,193.660038,901.957386,98.025
649, 10:28:58,56.173335,193.852391,903.085938,98.025
650, 10:28:58,56.242188,194.138021,903.978693,98.025
651, 10:28:58,56.320786,194.494081,905.353693,98.025
652, 10:28:58,56.378551,194.773438,906.234375,98.025
653, 10:28:58,56.464844,195.093395,906.395597,98.025
654, 10:28:58,56.521031,195.285156,908.182528,98.025
655, 10:28:58,56.596433,195.585701,908.03125,98.025
656, 10:28:58,56.632063,195.851681,909.459517,98.025
657, 10:28:58,56.700402,196.136245,910.397017,98.025
658, 10:28:58,56.745896,196.428504,911.426136,98.025
659, 10:28:58,56.804175,196.697088,912.986506,98.025
660, 10:28:59,56.885259,197.069602,913.75,98.0
661, 10:28:59,56.947562,197.385298,914.448153,98.0
662, 10:28:59,56.953835,197.595407,915.598011,98.0
663, 10:28:59,56.629932,196.729759,910.210938,98.0
664, 10:28:59,56.138692,194.715791,904.223722,98.0
665, 10:28:59,55.864504,193.143703,899.353693,98.0
666, 10:28:59,55.762981,192.245384,897.460938,98.0
667, 10:28:59,55.736624,191.730232,895.713778,98.0
668, 10:28:59,55.688842,191.32268,895.294034,98.0
669, 10:28:59,55.673059,191.076941,894.475852,98.0
670, 10:28:59,55.715554,191.024029,895.698153,98.0
671, 10:28:59,55.760298,191.062145,894.895597,98.0
672, 10:28:59,55.795178,191.102391,895.50071,98.0
673, 10:28:59,55.790167,191.081203,895.765625,98.0
674, 10:28:59,55.793679,191.096946,895.823153,98.0
675, 10:28:59,55.819602,191.177083,895.934659,98.0
676, 10:28:59,55.873658,191.368134,896.757102,98.0
677, 10:28:59,55.933909,191.702296,898.051847,98.0
678, 10:28:59,56.044468,191.984257,899.246449,98.0
679, 10:28:59,56.125868,192.349195,900.572443,98.0
680, 10:28:59,56.215238,192.686435,902.144176,98.0
681, 10:28:59,56.251499,192.967566,902.711648,98.0
682, 10:28:59,56.295533,193.381392,903.109375,98.0
683, 10:28:59,56.366911,193.673177,904.834517,98.0
684, 10:28:59,56.470052,194.144531,906.066051,98.0
685, 10:28:59,56.55962,194.458215,906.993608,98.0
686, 10:28:59,56.643032,194.799834,908.549006,98.0
687, 10:28:59,56.73331,195.229285,909.543324,98.0
688, 10:28:59,56.827257,195.688684,910.987216,98.0
689, 10:28:59,56.926807,196.108073,911.946733,98.0
690, 10:29:00,56.756944,195.74053,910.525568,98.025
691, 10:29:00,56.25363,194.138731,902.863636,98.025
692, 10:29:00,55.870936,192.280421,897.551847,98.025
693, 10:29:00,55.714291,191.12062,894.772017,98.025
694, 10:29:00,55.666785,190.526397,894.200994,98.025
695, 10:29:00,55.655027,190.141217,892.955256,98.025
696, 10:29:00,55.669113,189.928267,892.396307,98.025
697, 10:29:00,55.690933,189.842685,892.550426,98.025
698, 10:29:00,55.722459,189.867188,893.299716,98.025
699, 10:29:00,55.767401,190.000592,893.233665,98.025
700, 10:29:00,55.782276,190.089725,894.234375,98.025
701, 10:29:00,55.8067,190.113755,894.452415,98.025
702, 10:29:00,55.839568,190.195312,894.833807,98.025
703, 10:29:00,55.878827,190.40258,895.338778,98.025
704, 10:29:00,55.955216,190.691406,896.128551,98.025
705, 10:29:00,56.016769,190.992069,897.662642,98.025
706, 10:29:00,56.085346,191.301491,898.74929,98.025
707, 10:29:00,56.165759,191.610914,900.088778,98.025
708, 10:29:00,56.21733,191.960227,900.823864,98.025
709, 10:29:00,56.252841,192.17803,900.545455,98.025
710, 10:29:00,56.355942,192.500118,902.818892,98.025
711, 10:29:00,56.404908,192.8241,903.274148,98.025
712, 10:29:00,56.467251,193.140388,905.225852,98.025
713, 10:29:00,56.504459,193.577296,905.21946,98.025
714, 10:29:00,56.583767,193.867306,906.621449,98.025
715, 10:29:00,56.676531,194.290483,907.839489,98.025
716, 10:29:00,56.760535,194.640507,908.99929,98.025
717, 10:29:00,56.636245,194.467448,907.213778,98.025
718, 10:29:00,56.165128,192.825402,901.489347,98.025
719, 10:29:00,55.814631,191.124763,895.458807,98.025
720, 10:29:01,55.660117,190.040009,893.169034,98.025
721, 10:29:01,55.646622,189.552557,891.426136,98.025
722, 10:29:01,55.643308,189.383996,891.639205,98.025
723, 10:29:01,55.655421,189.274029,891.232244,98.025
724, 10:29:01,55.693695,189.306937,892.259233,98.025
725, 10:29:01,55.742937,189.428622,892.773438,98.025
726, 10:29:01,55.731534,189.464489,892.548295,98.025
727, 10:29:01,55.726799,189.445076,891.778409,98.025
728, 10:29:01,55.719302,189.402699,892.632102,98.025
729, 10:29:01,55.772925,189.560724,892.605824,98.025
730, 10:29:01,55.828086,189.762666,894.487926,98.025
731, 10:29:01,55.915759,190.097183,896.00071,98.025
732, 10:29:01,56.00217,190.446851,897.34304,98.025
733, 10:29:01,56.119279,190.904711,898.71804,98.025
734, 10:29:01,56.190341,191.274148,900.247159,98.025
735, 10:29:01,56.267124,191.635653,900.805398,98.025
736, 10:29:01,56.352352,192.04285,903.129261,98.025
737, 10:29:01,56.399187,192.253433,902.87571,98.025
738, 10:29:01,56.457505,192.54723,904.036222,98.025
739, 10:29:01,56.527304,192.913826,904.153409,98.025
740, 10:29:01,56.60681,193.265507,906.246449,98.025
741, 10:29:01,56.676886,193.575166,907.141335,98.025
742, 10:29:01,56.649108,193.700166,907.868608,98.025
743, 10:29:01,56.258562,192.570668,901.977983,98.025
744, 10:29:01,55.817393,190.679451,895.517045,98.025
745, 10:29:01,55.623658,189.423059,891.208807,98.025
746, 10:29:01,55.545455,188.652936,889.715909,98.025
747, 10:29:01,55.525568,188.291667,888.886364,98.025
748, 10:29:01,55.500513,188.099077,888.918324,98.025
749, 10:29:01,55.499842,187.955966,887.960227,98.025
750, 10:29:02,55.527186,188.060251,889.122869,98.025
751, 10:29:02,55.557923,188.168087,889.741477,98.025
752, 10:29:02,55.569366,188.183002,890.151989,98.025
753, 10:29:02,55.588147,188.236979,889.606534,98.025
754, 10:29:02,55.599984,188.283381,890.058239,98.025
755, 10:29:02,55.660117,188.49929,890.677557,98.025
756, 10:29:02,55.750986,188.843868,893.09446,98.025
757, 10:29:02,55.829506,189.22384,894.024858,98.025
758, 10:29:02,55.911024,189.559777,895.716619,98.025
759, 10:29:02,55.996725,189.89027,896.537642,98.025
760, 10:29:02,56.098169,190.330492,898.014205,98.025
761, 10:29:02,56.192116,190.717921,899.918324,98.025
762, 10:29:02,56.260693,191.054332,901.121449,98.025
763, 10:29:02,56.35026,191.433357,901.526278,98.025
764, 10:29:02,56.409801,191.793797,902.87358,98.025
765, 10:29:02,56.517795,192.247041,904.587358,98.025
766, 10:29:02,56.633681,192.682765,906.542614,98.025
767, 10:29:02,56.760259,193.162879,908.150568,98.025
768, 10:29:02,56.863045,193.659209,909.892756,98.025
769, 10:29:02,56.781566,193.548769,908.849432,98.025
770, 10:29:02,56.325008,192.01669,902.466619,98.025
771, 10:29:02,55.893821,190.043205,895.915483,98.025
772, 10:29:02,55.664733,188.653764,891.726562,98.025
773, 10:29:02,55.572838,187.819839,889.637784,98.025
774, 10:29:02,55.522057,187.329901,888.723722,98.025
775, 10:29:02,55.424361,186.865412,886.178267,98.025
776, 10:29:02,55.468868,186.768821,887.095881,98.025
777, 10:29:02,55.512468,186.809659,887.184659,98.025
778, 10:29:02,55.54431,186.977628,888.090199,98.025
779, 10:29:02,55.561001,187.085464,888.62358,98.025
780, 10:29:03,55.592527,187.127486,889.00071,98.025
781, 10:29:03,55.626697,187.282552,889.539062,98.025
782, 10:29:03,55.697325,187.480705,890.699574,98.025
783, 10:29:03,55.772846,187.882457,891.615767,98.025
784, 10:29:03,55.884904,188.268348,893.527699,98.025
785, 10:29:03,55.994634,188.684659,895.142045,98.025
786, 10:29:03,56.077217,189.070668,896.878551,98.025
787, 10:29:03,56.184225,189.578243,898.818892,98.025
788, 10:29:03,56.290917,190.005327,899.952415,98.025
789, 10:29:03,56.397333,190.482718,901.56392,98.025
790, 10:29:03,56.490925,190.937737,903.262784,98.025
791, 10:29:03,56.567314,191.340672,904.473011,98.025
792, 10:29:03,56.684304,191.747041,906.573153,98.025
793, 10:29:03,56.799716,192.263258,907.786932,98.025
794, 10:29:03,56.919192,192.764678,909.767045,98.025
795, 10:29:03,57.002328,193.139086,910.53054,98.025
796, 10:29:03,57.038786,193.433594,911.425426,98.025
797, 10:29:03,56.78413,192.547467,907.310369,98.025
798, 10:29:03,56.35101,190.644413,901.008523,98.025
799, 10:29:03,56.074455,189.138139,896.064631,98.025
800, 10:29:03,55.99128,188.279238,893.845881,98.025
801, 10:29:03,55.94622,187.812618,892.946733,98.025
802, 10:29:03,55.905737,187.47526,892.294744,98.025
803, 10:29:03,55.88806,187.354048,891.831676,98.025
804, 10:29:03,55.929688,187.484138,892.137784,98.025
805, 10:29:03,55.973801,187.640152,892.835227,98.025
806, 10:29:03,55.998224,187.831321,894.149858,98.025
807, 10:29:03,56.016335,187.838778,894.197443,98.025
808, 10:29:03,56.060882,188.007457,895.024858,98.025
809, 10:29:03,56.122475,188.235322,895.664773,98.025
810, 10:29:04,56.212555,188.557173,896.794744,98.025
811, 10:29:04,56.318576,188.973248,898.953125,98.025
812, 10:29:04,56.400331,189.352509,899.549716,98.025
813, 10:29:04,56.503472,189.862216,901.360795,98.025
814, 10:29:04,56.593474,190.294152,903.213778,98.025
815, 10:29:04,56.666706,190.707031,904.230824,98.025
816, 10:29:04,56.774621,191.178504,906.235795,98.025
817, 10:29:04,56.836569,191.490767,907.12358,98.025
818, 10:29:04,56.925387,191.905895,908.776278,98.025
819, 10:29:04,57.019492,192.307528,909.507102,98.025
820, 10:29:04,57.143624,192.753788,911.096591,98.025
821, 10:29:04,57.256787,193.213542,912.806818,98.025
822, 10:29:04,57.282118,193.448627,912.509943,98.025
823, 10:29:04,57.024187,192.650213,909.53196,98.025
824, 10:29:04,56.645202,190.980114,903.542614,98.025
825, 10:29:04,56.449021,189.696023,900.079545,98.025
826, 10:29:04,56.386127,189.13518,898.808239,98.025
827, 10:29:04,56.40554,188.915009,898.96733,98.025
828, 10:29:04,56.401989,188.769413,898.480114,98.025
829, 10:29:04,56.419784,188.840791,899.064631,98.025
830, 10:29:04,56.526989,189.08428,900.815341,98.025
831, 10:29:04,56.538589,189.273911,900.34233,98.025
832, 10:29:04,56.554688,189.39607,901.328125,98.025
833, 10:29:04,56.583531,189.493016,901.602983,98.025
834, 10:29:04,56.621804,189.626776,901.916903,98.025
835, 10:29:04,56.695786,189.948627,903.490057,98.025
836, 10:29:04,56.778646,190.414536,905.558239,98.025
837, 10:29:04,56.850576,190.910156,905.739347,98.025
838, 10:29:04,56.952849,191.241596,907.50071,98.025
839, 10:29:04,57.038194,191.708333,909.676136,98.025
840, 10:29:05,57.117977,192.094934,910.430398,98.025
841, 10:29:05,57.200087,192.586056,911.027699,98.025
842, 10:29:05,57.289418,192.964844,912.916903,98.025
843, 10:29:05,57.38664,193.37062,914.371449,98.025
844, 10:29:05,57.460977,193.754616,916.371449,98.025
845, 10:29:05,57.561514,194.210582,917.357244,98.025
846, 10:29:05,57.647254,194.630208,919.002841,98.025
847, 10:29:05,57.748382,195.083215,920.044744,98.025
848, 10:29:05,57.625039,194.82919,919.003551,98.025
849, 10:29:05,57.269176,193.451468,912.504261,98.025
850, 10:29:05,56.967882,191.951941,908.629261,98.025
851, 10:29:05,56.822798,190.992069,905.310369,98.025
852, 10:29:05,56.793284,190.645952,904.645597,98.025
853, 10:29:05,56.76602,190.319839,904.606534,98.025
854, 10:29:05,56.724392,190.078954,903.399858,98.025
855, 10:29:05,56.741596,190.108783,903.533381,98.025
856, 10:29:05,56.811948,190.424006,904.47017,98.025
857, 10:29:05,56.848209,190.575402,904.955256,98.025
858, 10:29:05,56.836293,190.65187,905.161222,98.025
859, 10:29:05,56.849787,190.8183,906.108665,98.025
860, 10:29:05,56.884904,190.969105,906.851562,98.025
861, 10:29:05,56.983428,191.391098,908.306818,98.025
862, 10:29:05,57.05449,191.717921,909.645597,98.025
863, 10:29:05,57.129301,192.11991,910.949574,98.025
864, 10:29:05,57.233231,192.529711,912.192472,98.025
865, 10:29:05,57.283065,192.826468,913.419034,98.025
866, 10:29:05,57.398635,193.377723,915.289062,98.025
867, 10:29:05,57.450758,193.696023,915.934659,98.025
868, 10:29:05,57.483704,194.06617,915.772017,98.025
869, 10:29:05,57.599905,194.526515,917.642045,98.025
870, 10:29:06,57.700008,194.939039,919.509233,98.025
871, 10:29:06,57.792061,195.313684,921.169034,98.025
872, 10:29:06,57.890033,195.821141,922.176847,98.025
873, 10:29:06,57.983902,196.153883,923.636364,98.025
874, 10:29:06,58.040128,196.60902,924.577415,98.025
875, 10:29:06,57.995344,196.60535,923.453125,98.025
876, 10:29:06,57.654001,195.467211,918.672585,98.025
877, 10:29:06,57.320589,193.93383,914.28196,98.025
878, 10:29:06,57.153606,192.964134,912.020597,98.025
879, 10:29:06,57.105903,192.506155,910.59375,98.025
880, 10:29:06,57.06901,192.263849,910.233665,98.025
881, 10:29:06,57.024306,191.982955,909.227273,98.025
882, 10:29:06,57.025331,191.943419,910.359375,98.025
883, 10:29:06,57.046836,192.136245,910.141335,98.025
884, 10:29:06,57.091974,192.308594,911.226562,98.025
885, 10:29:06,57.107086,192.389915,911.421875,98.025
886, 10:29:06,57.113281,192.440223,911.720881,98.025
887, 10:29:06,57.169784,192.637192,912.149858,98.025
888, 10:29:06,57.205058,192.890743,912.071733,98.025
889, 10:29:06,57.300939,193.216264,913.908381,98.025
890, 10:29:06,57.37717,193.640507,916.135653,98.025
891, 10:29:06,57.444168,193.957978,916.009233,98.025
892, 10:29:06,57.511521,194.325284,917.806818,98.025
893, 10:29:06,57.624645,194.8067,919.581676,98.025
894, 10:29:06,57.686592,195.145005,920.648438,98.025
895, 10:29:06,57.778093,195.549716,921.693182,98.025
896, 10:29:06,57.837437,195.906723,922.153409,98.025
897, 10:29:06,57.913628,196.262666,923.078835,98.025
898, 10:29:06,57.978496,196.647609,924.919744,98.025
899, 10:29:06,58.038984,197.088068,925.03125,98.025
900, 10:29:07,58.138652,197.460938,926.836648,98.025
901, 10:29:07,58.224511,197.851562,927.848011,98.025
902, 10:29:07,58.295336,198.229759,929.333097,98.025
903, 10:29:07,58.351523,198.571615,929.992188,98.025
904, 10:29:07,58.204585,198.300781,928.40696,98.025
905, 10:29:07,57.805319,196.896544,922.18892,98.025
906, 10:29:07,57.539457,195.512311,919.602273,98.025
907, 10:29:07,57.428149,194.786813,917.016335,98.025
908, 10:29:07,57.372633,194.400095,915.741477,98.025
909, 10:29:07,57.353299,194.29285,916.194602,98.025
910, 10:29:07,57.331952,194.102865,916.006392,98.025
911, 10:29:07,57.367977,194.146544,915.865057,98.025
912, 10:29:07,57.391888,194.256155,916.522727,98.025
913, 10:29:07,57.408696,194.387547,916.640625,98.025
914, 10:29:07,57.415917,194.386482,916.50071,98.025
915, 10:29:07,57.419942,194.417022,916.272017,98.025
916, 10:29:07,57.454703,194.579072,917.502841,98.025
917, 10:29:07,57.511916,194.801373,917.640625,98.025
918, 10:29:07,57.588542,195.086174,919.392045,98.025
919, 10:29:07,57.633996,195.33428,919.272727,98.025
920, 10:29:07,57.683949,195.648911,921.359375,98.025
921, 10:29:07,57.746409,195.929569,921.807528,98.025
922, 10:29:07,57.842132,196.403764,923.172585,98.025
923, 10:29:07,57.919113,196.711411,924.617898,98.025
924, 10:29:07,57.976405,196.983191,925.666193,98.025
925, 10:29:07,58.02908,197.310251,926.051847,98.025
926, 10:29:07,58.101089,197.661695,926.96733,98.025
927, 10:29:07,58.14607,197.980824,927.339489,98.025
928, 10:29:07,58.216185,198.334635,928.931108,98.025
929, 10:29:07,58.291864,198.65258,930.483665,98.025
930, 10:29:08,58.332899,199.075876,930.495028,98.025
931, 10:29:08,58.320707,199.126894,931.107955,98.025
932, 10:29:08,58.040246,198.173295,927.346591,98.025
933, 10:29:08,57.686356,196.690223,921.59304,98.025
934, 10:29:08,57.504774,195.638849,919.634233,98.025
935, 10:29:08,57.428504,195.139678,917.940341,98.025
936, 10:29:08,57.405855,194.924479,917.955966,98.025
937, 10:29:08,57.40404,194.807292,917.420455,98.025
938, 10:29:08,57.434501,194.827652,917.911932,98.025
939, 10:29:08,57.476997,195.010062,918.81321,98.025
940, 10:29:08,57.487413,195.122277,918.915483,98.025
941, 10:29:08,57.496291,195.097301,919.058239,98.025
942, 10:29:08,57.480587,195.079072,918.477273,98.025
943, 10:29:08,57.501776,195.185251,918.492188,98.025
944, 10:29:08,57.539536,195.34446,920.109375,98.025
945, 10:29:08,57.631432,195.663707,920.806108,98.025
946, 10:29:08,57.687342,195.883049,921.568182,98.025
947, 10:29:08,57.73114,196.120975,921.09233,98.025
948, 10:29:08,57.802912,196.493016,922.818892,98.025
949, 10:29:08,57.860835,196.802675,923.18821,98.025
950, 10:29:08,57.923966,197.01527,924.639915,98.025
951, 10:29:08,58.029514,197.444129,926.698864,98.025
952, 10:29:08,58.078559,197.782079,927.297585,98.025
953, 10:29:08,58.125671,198.087713,927.764915,98.025
954, 10:29:08,58.192945,198.367661,928.606534,98.025
955, 10:29:08,58.23256,198.674479,930.225852,98.025
956, 10:29:08,58.315893,199.016335,931.416193,98.025
957, 10:29:08,58.405264,199.448745,932.101562,98.025
958, 10:29:08,58.39169,199.592685,932.851562,98.025
959, 10:29:08,58.049755,198.599077,926.710938,98.025
960, 10:29:09,57.626973,196.818892,921.526989,98.025
961, 10:29:09,57.378038,195.507694,917.759233,98.025
962, 10:29:09,57.320312,194.861506,916.526989,98.025
963, 10:29:09,57.255603,194.417377,915.299716,98.025
964, 10:29:09,57.195391,194.03125,914.994318,98.025
965, 10:29:09,57.176649,193.831558,914.347301,98.025
966, 10:29:09,57.208097,193.881866,914.930398,98.025
967, 10:29:09,57.243016,193.989465,915.377131,98.025
968, 10:29:09,57.245068,194.024976,915.31179,98.025
969, 10:29:09,57.237058,193.99053,915.4375,98.025
970, 10:29:09,57.257181,194.022491,915.396307,98.025
971, 10:29:09,57.290483,194.173532,915.839489,98.025
972, 10:29:09,57.336135,194.381984,916.925426,98.025
973, 10:29:09,57.430753,194.626065,918.168324,98.025
974, 10:29:09,57.507812,195.007339,919.12642,98.025
975, 10:29:09,57.552004,195.281013,919.694602,98.025
976, 10:29:09,57.624171,195.582268,921.098722,98.025
977, 10:29:09,57.67294,195.815696,921.431108,98.025
978, 10:29:09,57.770202,196.197443,922.036932,98.025
979, 10:29:09,57.835464,196.593987,923.004261,98.025
980, 10:29:09,57.890625,196.849432,923.903409,98.025
981, 10:29:09,57.96003,197.169389,924.513494,98.025
982, 10:29:09,58.039062,197.512074,926.725852,98.025
983, 10:29:09,58.09375,197.844697,928.071023,98.025
984, 10:29:09,58.142322,198.20206,928.522017,98.025
985, 10:29:09,58.227431,198.57339,928.963068,98.025
986, 10:29:09,58.254735,198.791193,929.471591,98.025
987, 10:29:09,58.063605,198.267045,927.715909,98.025
988, 10:29:09,57.61991,196.592211,921.877131,98.025
989, 10:29:09,57.26961,194.954664,915.185369,98.025
990, 10:29:10,57.132812,194.025331,914.34517,98.025
991, 10:29:10,57.037839,193.469579,913.203835,98.025
992, 10:29:10,56.973366,193.032789,911.37571,98.025
993, 10:29:10,56.960543,192.785038,911.113636,98.025
994, 10:29:10,56.971788,192.757694,911.702415,98.025
995, 10:29:10,57.019689,192.90992,911.487926,98.025
996, 10:29:10,57.033933,192.946023,911.332386,98.025
997, 10:29:10,57.044034,192.968277,911.008523,98.025
998, 10:29:10,57.044902,193.044744,912.146307,98.025
999, 10:29:10,57.090238,193.157552,912.112926,98.025
1000, 10:29:10,57.123224,193.334635,913.362926,98.025
1001, 10:29:10,57.226128,193.701113,914.516335,98.025
1002, 10:29:10,57.313092,194.018821,915.823153,98.025
1003, 10:29:10,57.361111,194.274621,916.767045,98.025
1004, 10:29:10,57.457268,194.712713,918.023438,98.025
1005, 10:29:10,57.491359,194.911103,918.517756,98.025
1006, 10:29:10,57.611151,195.336766,920.148438,98.025
1007, 10:29:10,57.670336,195.682884,920.557528,98.025
1008, 10:29:10,57.744121,196.049124,922.34304,98.025
1009, 10:29:10,57.810685,196.364347,923.367898,98.025
1010, 10:29:10,57.864741,196.684186,924.039773,98.025
1011, 10:29:10,57.921441,196.983073,924.361506,98.025
1012, 10:29:10,58.017558,197.369437,926.617188,98.025
1013, 10:29:10,58.086924,197.774976,927.891335,98.025
1014, 10:29:10,58.162642,198.254972,928.901989,98.025
1015, 10:29:10,58.170967,198.331558,928.679688,98.025
1016, 10:29:10,57.831873,197.447325,924.638494,98.025
1017, 10:29:10,57.416588,195.684896,917.56108,98.025
1018, 10:29:10,57.177872,194.480114,914.789773,98.025
1019, 10:29:10,57.126815,193.878551,913.18608,98.025
1020, 10:29:11,57.113597,193.698272,913.073153,98.025
1021, 10:29:11,57.09083,193.525331,912.421875,98.025
1022, 10:29:11,57.110125,193.472893,912.857244,98.025
1023, 10:29:11,57.131787,193.619318,912.75,98.025
1024, 10:29:11,57.171914,193.727865,914.139915,98.025
1025, 10:29:11,57.178385,193.740175,913.370028,98.025
1026, 10:29:11,57.189276,193.729285,914.28196,98.025
1027, 10:29:11,57.195628,193.797585,913.887784,98.025
1028, 10:29:11,57.236585,193.960701,915.153409,98.025
1029, 10:29:11,57.302872,194.233902,916.034091,98.025
1030, 10:29:11,57.37208,194.532907,916.512784,98.025
1031, 10:29:11,57.44259,194.862808,917.080256,98.025
1032, 10:29:11,57.511364,195.192235,918.798295,98.025
1033, 10:29:11,57.574968,195.469697,919.295455,98.025
1034, 10:29:11,57.661774,195.791667,921.505682,98.025
1035, 10:29:11,57.702178,196.133996,921.375,98.025
1036, 10:29:11,57.775016,196.540956,923.038352,98.025
1037, 10:29:11,57.833767,196.840791,923.107244,98.025
1038, 10:29:11,57.919705,197.206084,925.068892,98.025
1039, 10:29:11,57.999329,197.607836,926.416903,98.025
1040, 10:29:11,58.074298,197.971946,927.652699,98.025
1041, 10:29:11,58.155421,198.396662,928.053267,98.025
1042, 10:29:11,58.111821,198.498816,928.401989,98.025
1043, 10:29:11,57.777462,197.396307,923.227273,98.025
1044, 10:29:11,57.363321,195.762784,917.721591,98.025
1045, 10:29:11,57.143426,194.675545,914.422585,98.025
1046, 10:29:11,57.079624,194.14607,912.75142,98.025
1047, 10:29:11,57.049479,193.977509,912.53267,98.025
1048, 10:29:11,57.033104,193.772135,912.607244,98.025
1049, 10:29:11,57.054056,193.797112,912.791193,98.025
1050, 10:29:12,57.092842,193.935251,914.097301,98.025
1051, 10:29:12,57.141454,194.08724,913.949574,98.025
1052, 10:29:12,57.155698,194.192945,914.990057,98.025
1053, 10:29:12,57.159801,194.192945,913.958807,98.025
1054, 10:29:12,57.170178,194.330611,913.924006,98.025
1055, 10:29:12,57.223722,194.550426,916.086648,98.025
1056, 10:29:12,57.301255,194.855469,915.851562,98.025
1057, 10:29:12,57.374961,195.215317,917.107244,98.025
1058, 10:29:12,57.4506,195.53125,918.116477,98.025
1059, 10:29:12,57.525568,195.848958,919.036932,98.025
1060, 10:29:12,57.611624,196.255327,921.577415,98.025
1061, 10:29:12,57.657315,196.530185,921.107244,98.025
1062, 10:29:12,57.728417,196.93383,922.654119,98.025
1063, 10:29:12,57.789812,197.279474,924.083097,98.025
1064, 10:29:12,57.8503,197.6991,924.944602,98.025
1065, 10:29:12,57.895084,197.991122,925.222301,98.025
1066, 10:29:12,57.991004,198.394413,926.434659,98.025
1067, 10:29:12,58.081242,198.734257,928.485085,98.025
1068, 10:29:12,58.119989,199.16063,929.608665,98.025
1069, 10:29:12,58.184975,199.508523,929.75,98.025
1070, 10:29:12,58.089568,199.419744,929.353693,98.025
1071, 10:29:12,57.621015,198.04723,922.877131,98.025
1072, 10:29:12,57.198272,196.359493,917.620028,98.025
1073, 10:29:12,57.012705,195.090199,914.09517,98.025
1074, 10:29:12,56.95715,194.588305,912.723011,98.025
1075, 10:29:12,56.923217,194.284328,912.544034,98.025
1076, 10:29:12,56.870857,193.979995,911.879972,98.025
1077, 10:29:12,56.857402,193.782434,910.867898,98.025
1078, 10:29:12,56.902462,193.883049,912.201705,98.025
1079, 10:29:12,56.959635,194.071615,912.091619,98.025
1080, 10:29:13,56.949653,194.088542,912.440341,98.025
1081, 10:29:13,56.943616,194.135772,912.774858,98.025
1082, 10:29:13,56.973603,194.167495,913.34304,98.025
1083, 10:29:13,56.989623,194.399266,913.611506,98.025
1084, 10:29:13,57.063013,194.707505,914.395597,98.025
1085, 10:29:13,57.123619,194.975497,915.171165,98.025
1086, 10:29:13,57.215317,195.304096,916.884233,98.025
1087, 10:29:13,57.28488,195.605114,917.5625,98.025
1088, 10:29:13,57.337713,195.988518,918.678267,98.025
1089, 10:29:13,57.392756,196.371449,919.274148,98.025
1090, 10:29:13,57.492977,196.687263,920.93608,98.025
1091, 10:29:13,57.547664,197.066761,921.758523,98.025
1092, 10:29:13,57.608073,197.37867,922.789062,98.025
1093, 10:29:13,57.691643,197.70277,923.827415,98.025
1094, 10:29:13,57.745068,198.017401,924.65554,98.025
1095, 10:29:13,57.793679,198.393348,925.760653,98.025
1096, 10:29:13,57.860204,198.726918,926.648438,98.025
1097, 10:29:13,57.899661,199.082505,927.304688,98.025
1098, 10:29:13,57.998067,199.506037,929.513494,98.025
1099, 10:29:13,57.830571,199.188684,926.955966,98.025
1100, 10:29:13,57.348051,197.673887,920.296165,98.025
1101, 10:29:13,56.97238,196.028883,914.460227,98.025
1102, 10:29:13,56.794547,194.944721,912.398438,98.025
1103, 10:29:13,56.741675,194.376539,911.25071,98.025
1104, 10:29:13,56.704427,194.010535,910.608665,98.025
1105, 10:29:13,56.657079,193.635535,909.495028,98.025
1106, 10:29:13,56.677794,193.755445,909.629261,98.025
1107, 10:29:13,56.732205,193.857126,909.722301,98.025
1108, 10:29:13,56.765783,193.963068,911.142045,98.025
1109, 10:29:13,56.773516,193.985322,911.085227,98.025
1110, 10:29:14,56.771859,193.998816,911.075284,98.05
1111, 10:29:14,56.796678,194.093632,911.024858,98.05
1112, 10:29:14,56.869752,194.289181,913.104403,98.05
1113, 10:29:14,56.9302,194.576586,912.902699,98.05
1114, 10:29:14,57.009864,194.896544,915.066761,98.05
1115, 10:29:14,57.061198,195.229522,915.40554,98.05
1116, 10:29:14,57.109414,195.61849,915.867188,98.05
1117, 10:29:14,57.167653,195.875118,916.790483,98.05
1118, 10:29:14,57.23181,196.125355,917.715199,98.05
1119, 10:29:14,57.313408,196.467685,918.769176,98.05
1120, 10:29:14,57.348248,196.861979,920.549716,98.05
1121, 10:29:14,57.474945,197.19188,921.986506,98.05
1122, 10:29:14,57.541548,197.626539,922.955256,98.05
1123, 10:29:14,57.588976,198.00651,923.607244,98.05
1124, 10:29:14,57.682371,198.355824,924.992898,98.05
1125, 10:29:14,57.73544,198.640033,925.46804,98.05
1126, 10:29:14,57.807686,199.024858,927.166193,98.05
1127, 10:29:14,57.862334,199.405185,928.138494,98.05
1128, 10:29:14,57.764047,199.331439,927.53125,98.05
1129, 10:29:14,57.280027,197.833925,920.18821,98.05
1130, 10:29:14,56.901989,196.138258,914.596591,98.05
1131, 10:29:14,56.722854,195.008049,912.056818,98.05
1132, 10:29:14,56.685054,194.423059,911.46733,98.05
1133, 10:29:14,56.649503,194.203243,910.466619,98.05
1134, 10:29:14,56.643742,194.020715,910.414062,98.05
1135, 10:29:14,56.678622,194.032552,910.027699,98.05
1136, 10:29:14,56.719105,194.210819,911.801847,98.05
1137, 10:29:14,56.739031,194.274858,912.21733,98.05
1138, 10:29:14,56.737926,194.257812,912.524148,98.05
1139, 10:29:14,56.725497,194.217211,911.286222,98.05
1140, 10:29:15,56.735006,194.183712,911.738636,98.05
1141, 10:29:15,56.778646,194.411695,912.330966,98.05
1142, 10:29:15,56.845683,194.678622,912.949574,98.05
1143, 10:29:15,56.916312,194.959635,913.62429,98.05
1144, 10:29:15,56.94551,195.22526,914.720881,98.05
1145, 10:29:15,57.066288,195.608428,915.477273,98.05
1146, 10:29:15,57.127407,195.961293,916.796165,98.05
1147, 10:29:15,57.108191,196.10535,916.149148,98.05
1148, 10:29:15,57.24491,196.617306,919.306108,98.05
1149, 10:29:15,57.286892,196.87062,919.553267,98.05
1150, 10:29:15,57.377052,197.179451,920.6875,98.05
1151, 10:29:15,57.41931,197.536813,921.612926,98.05
1152, 10:29:15,57.498343,197.920691,922.759943,98.05
1153, 10:29:15,57.57702,198.35322,924.542614,98.05
1154, 10:29:15,57.620778,198.614228,924.915483,98.05
1155, 10:29:15,57.37283,198.045099,921.392756,98.05
1156, 10:29:15,56.883049,196.328125,914.673295,98.05
1157, 10:29:15,56.544902,194.630445,909.43608,98.05
1158, 10:29:15,56.412208,193.676018,907.786222,98.05
1159, 10:29:15,56.383602,193.323627,906.731534,98.05
1160, 10:29:15,56.37642,193.079072,906.926136,98.05
1161, 10:29:15,56.396978,192.960819,906.142756,98.05
1162, 10:29:15,56.432015,192.992069,906.804688,98.05
1163, 10:29:15,56.468829,193.135653,907.294034,98.05
1164, 10:29:15,56.484612,193.237926,907.291193,98.05
1165, 10:29:15,56.4942,193.25438,907.299006,98.05
1166, 10:29:15,56.479916,193.194484,907.84304,98.05
1167, 10:29:15,56.505051,193.302083,908.153409,98.05
1168, 10:29:15,56.585582,193.483073,909.514915,98.05
1169, 10:29:15,56.644452,193.856652,909.713778,98.05
1170, 10:29:16,56.714686,194.23402,911.674006,98.05
1171, 10:29:16,56.803859,194.576349,912.443892,98.05
1172, 10:29:16,56.880248,194.989702,913.716619,98.05
1173, 10:29:16,56.911971,195.278054,914.912642,98.05
1174, 10:29:16,56.962121,195.553977,915.457386,98.05
1175, 10:29:16,57.056187,195.932765,916.082386,98.05
1176, 10:29:16,57.124566,196.256274,917.801847,98.05
1177, 10:29:16,57.182805,196.643111,917.960938,98.05
1178, 10:29:16,57.234533,196.994318,918.693182,98.05
1179, 10:29:16,57.359375,197.497633,921.380682,98.05
1180, 10:29:16,57.440025,197.867898,922.397727,98.05
1181, 10:29:16,57.467606,198.136719,923.223722,98.05
1182, 10:29:16,57.40917,198.128551,922.663352,98.05
1183, 10:29:16,56.94985,196.705137,915.480824,98.05
1184, 10:29:16,56.492306,194.766217,909.983665,98.05
1185, 10:29:16,56.233467,193.262429,905.279119,98.05
1186, 10:29:16,56.172467,192.48473,903.808949,98.05
1187, 10:29:16,56.120541,191.999882,902.453835,98.05
1188, 10:29:16,56.057173,191.600497,901.756392,98.05
1189, 10:29:16,56.064789,191.449574,901.419034,98.05
1190, 10:29:16,56.109336,191.52687,902.291903,98.05
1191, 10:29:16,56.148398,191.633168,902.446733,98.05
1192, 10:29:16,56.14169,191.682173,903.277699,98.05
1193, 10:29:16,56.144729,191.667614,902.497159,98.05
1194, 10:29:16,56.173651,191.77758,903.387074,98.05
1195, 10:29:16,56.211845,191.897846,903.546165,98.05
1196, 10:29:16,56.329624,192.262074,905.200284,98.05
1197, 10:29:16,56.395084,192.536103,905.46946,98.05
1198, 10:29:16,56.487768,192.899384,908.12642,98.05
1199, 10:29:16,56.559146,193.304806,907.797585,98.05
1200, 10:29:17,56.637587,193.727628,910.627131,98.05
1201, 10:29:17,56.745107,194.097538,911.508523,98.05
1202, 10:29:17,56.792061,194.478456,912.700284,98.05
1203, 10:29:17,56.878235,194.834517,914.237216,98.05
1204, 10:29:17,56.953007,195.299834,914.574574,98.05
1205, 10:29:17,57.038471,195.644768,915.371449,98.05
1206, 10:29:17,57.099235,196.092211,916.774858,98.05
1207, 10:29:17,57.19622,196.494437,917.685369,98.05
1208, 10:29:17,57.295889,196.918442,919.041903,98.05
1209, 10:29:17,57.322562,197.266454,919.683949,98.05
1210, 10:29:17,57.277659,197.371804,919.887074,98.05
1211, 10:29:17,56.848209,196.14169,915.051847,98.05
1212, 10:29:17,56.403133,194.27758,907.733665,98.05
1213, 10:29:17,56.155382,192.636127,903.853693,98.05
1214, 10:29:17,56.050426,191.832623,902.041193,98.05
1215, 10:29:17,56.014796,191.351681,900.672585,98.05
1216, 10:29:17,55.969066,191.064394,899.823864,98.05
1217, 10:29:17,55.991675,190.984493,899.645597,98.05
1218, 10:29:17,56.037445,191.037524,900.426847,98.05
1219, 10:29:17,56.074455,191.247514,900.982244,98.05
1220, 10:29:17,56.052083,191.195076,900.997159,98.05
1221, 10:29:17,56.054609,191.125473,900.661932,98.05
1222, 10:29:17,56.106376,191.29214,901.443182,98.05
1223, 10:29:17,56.153093,191.477273,902.238636,98.05
1224, 10:29:17,56.253354,191.822088,903.534801,98.05
1225, 10:29:17,56.33574,192.171993,904.25071,98.05
1226, 10:29:17,56.391533,192.4942,906.18679,98.05
1227, 10:29:17,56.502131,192.887074,908.024148,98.05
1228, 10:29:17,56.550623,193.212003,908.033381,98.05
1229, 10:29:17,56.643624,193.584754,909.625,98.05
1230, 10:29:18,56.70273,193.95715,911.041193,98.025
1231, 10:29:18,56.771859,194.334044,911.146307,98.025
1232, 10:29:18,56.839528,194.707978,912.713778,98.025
1233, 10:29:18,56.894492,195.039062,913.973011,98.025
1234, 10:29:18,56.966777,195.507339,915.526989,98.025
1235, 10:29:18,57.040286,195.822088,915.963778,98.025
1236, 10:29:18,57.117424,196.36411,917.894886,98.025
1237, 10:29:18,57.061987,196.247041,916.263494,98.025
1238, 10:29:18,56.592014,194.795928,910.102273,98.025
1239, 10:29:18,56.197049,192.991714,904.723011,98.025
1240, 10:29:18,55.982126,191.596473,900.43679,98.025
1241, 10:29:18,55.945273,191.066406,899.384233,98.025
1242, 10:29:18,55.942551,190.840436,899.488636,98.025
1243, 10:29:18,55.949219,190.760062,898.909801,98.025
1244, 10:29:18,55.999408,190.788471,899.50071,98.025
1245, 10:29:18,56.05307,191.033262,900.131392,98.025
1246, 10:29:18,56.073587,191.178149,900.733665,98.025
1247, 10:29:18,56.08649,191.176136,901.227273,98.025
1248, 10:29:18,56.081716,191.217685,901.220881,98.025
1249, 10:29:18,56.116675,191.306937,901.412642,98.025
1250, 10:29:18,56.179845,191.584517,902.612216,98.025
1251, 10:29:18,56.284091,191.955492,903.954545,98.025
1252, 10:29:18,56.384115,192.310014,905.317472,98.025
1253, 10:29:18,56.464686,192.707505,905.881392,98.025
1254, 10:29:18,56.514205,193.035985,908.127841,98.025
1255, 10:29:18,56.596985,193.422112,909.447443,98.025
1256, 10:29:18,56.676531,193.806108,910.59517,98.025
1257, 10:29:18,56.711174,194.171875,910.565341,98.025
1258, 10:29:18,56.781566,194.534091,911.647727,98.025
1259, 10:29:18,56.860204,194.879853,911.713778,98.025
1260, 10:29:19,56.95423,195.299716,914.210227,98.025
1261, 10:29:19,56.987334,195.617306,914.743608,98.025
1262, 10:29:19,57.036577,195.97242,914.683949,98.025
1263, 10:29:19,56.781408,195.410038,912.40625,98.025
1264, 10:29:19,56.292022,193.556463,905.68821,98.025
1265, 10:29:19,55.944089,191.705848,899.289062,98.025
1266, 10:29:19,55.793205,190.535866,896.808949,98.025
1267, 10:29:19,55.723761,190.036813,894.96804,98.025
1268, 10:29:19,55.721828,189.793324,895.262784,98.025
1269, 10:29:19,55.693774,189.613991,894.681108,98.025
1270, 10:29:19,55.732205,189.6308,895.50071,98.025
1271, 10:29:19,55.77616,189.807173,895.419744,98.025
1272, 10:29:19,55.802833,189.916075,896.337358,98.025
1273, 10:29:19,55.796638,189.929214,896.254261,98.025
1274, 10:29:19,55.808357,190.014086,896.237926,98.025
1275, 10:29:19,55.862571,190.133641,897.34446,98.025
1276, 10:29:19,55.93533,190.43383,898.057528,98.025
1277, 10:29:19,56.017085,190.841974,899.105824,98.025
1278, 10:29:19,56.101128,191.229995,901.223722,98.025
1279, 10:29:19,56.214568,191.6759,902.697443,98.025
1280, 10:29:19,56.269807,192.09304,904.31108,98.025
1281, 10:29:19,56.305832,192.289181,904.294744,98.025
1282, 10:29:19,56.412208,192.698272,906.084517,98.025
1283, 10:29:19,56.46512,193.113636,906.715909,98.025
1284, 10:29:19,56.507339,193.423532,907.46733,98.025
1285, 10:29:19,56.621883,193.908262,908.81321,98.025
1286, 10:29:19,56.718395,194.366832,911.098722,98.025
1287, 10:29:19,56.787958,194.808475,911.924716,98.025
1288, 10:29:19,56.862532,195.180398,913.454545,98.025
1289, 10:29:19,56.905816,195.588187,914.773438,98.025
1290, 10:29:20,56.760653,195.252604,912.191761,98.025
1291, 10:29:20,56.220565,193.47893,904.893466,98.025
1292, 10:29:20,55.81976,191.424242,898.1875,98.025
1293, 10:29:20,55.639086,190.136955,894.787642,98.025
1294, 10:29:20,55.552517,189.449692,892.911222,98.025
1295, 10:29:20,55.498224,189.054332,891.558949,98.025
1296, 10:29:20,55.434856,188.671046,890.756392,98.025
1297, 10:29:20,55.45857,188.617661,890.669034,98.025
1298, 10:29:20,55.508562,188.865649,892.475142,98.025
1299, 10:29:20,55.563999,189.070312,892.93608,98.025
1300, 10:29:20,55.557726,189.069957,892.78054,98.025
1301, 10:29:20,55.581952,189.172467,893.182528,98.025
1302, 10:29:20,55.631234,189.418324,893.205966,98.025
1303, 10:29:20,55.677478,189.672585,894.367898,98.025
1304, 10:29:20,55.77328,190.084991,896.544034,98.025
1305, 10:29:20,55.862926,190.390388,897.572443,98.025
1306, 10:29:20,55.956242,190.860204,899.033381,98.025
1307, 10:29:20,56.051294,191.302083,900.448864,98.025
1308, 10:29:20,56.139402,191.764796,903.014915,98.025
1309, 10:29:20,56.222735,192.090554,903.060369,98.025
1310, 10:29:20,56.295376,192.606771,904.785511,98.025
1311, 10:29:20,56.358704,193.018821,905.74929,98.025
1312, 10:29:20,56.42369,193.34446,906.992898,98.025
1313, 10:29:20,56.523516,193.776515,907.960227,98.025
1314, 10:29:20,56.594894,194.233073,909.710938,98.025
1315, 10:29:20,56.689236,194.689394,910.556818,98.025
1316, 10:29:20,56.770202,195.116951,911.863636,98.025
1317, 10:29:20,56.814039,195.502249,912.962358,98.025
1318, 10:29:20,56.777462,195.52983,912.426136,98.025
1319, 10:29:20,56.337003,194.211293,906.929688,98.025
1320, 10:29:21,55.862137,192.189631,899.450284,98.025
1321, 10:29:21,55.63514,190.618016,895.861506,98.025
1322, 10:29:21,55.556029,189.909564,893.940341,98.025
1323, 10:29:21,55.513336,189.588305,893.086648,98.025
1324, 10:29:21,55.467764,189.306226,892.68679,98.025
1325, 10:29:21,55.458886,189.237453,892.129261,98.025
1326, 10:29:21,55.523043,189.391572,893.389205,98.025
1327, 10:29:21,55.548059,189.542377,893.896307,98.025
1328, 10:29:21,55.540483,189.558002,893.893466,98.025
1329, 10:29:21,55.537366,189.54723,893.402699,98.025
1330, 10:29:21,55.58361,189.643348,894.175426,98.025
1331, 10:29:21,55.628906,189.927438,895.246449,98.025
1332, 10:29:21,55.714844,190.29794,896.858665,98.025
1333, 10:29:21,55.772688,190.749408,897.058949,98.025
1334, 10:29:21,55.880682,191.131629,899.599432,98.025
1335, 10:29:21,55.951783,191.494081,900.430398,98.025
1336, 10:29:21,56.039497,191.920573,902.00071,98.025
1337, 10:29:21,56.13226,192.367898,902.394886,98.025
1338, 10:29:21,56.196536,192.743963,904.054688,98.025
1339, 10:29:21,56.301807,193.228812,906.057528,98.025
1340, 10:29:21,56.370462,193.64974,907.418324,98.025
1341, 10:29:21,56.450245,193.992306,907.425426,98.025
1342, 10:29:21,56.520005,194.40187,909.320312,98.025
1343, 10:29:21,56.581834,194.82268,909.615057,98.025
1344, 10:29:21,56.625908,195.171757,911.286222,98.025
1345, 10:29:21,56.613834,195.27474,911.085938,98.025
1346, 10:29:21,56.219223,194.138258,906.28125,98.025
1347, 10:29:21,55.779987,192.312027,898.886364,98.025
1348, 10:29:21,55.59592,190.991359,895.692472,98.025
1349, 10:29:21,55.557134,190.390152,894.974432,98.025
1350, 10:29:22,55.518545,190.191051,894.541193,98.0
1351, 10:29:22,55.538747,190.12429,894.933239,98.0
1352, 10:29:22,55.567472,190.214252,894.734375,98.0
1353, 10:29:22,55.669626,190.527817,896.996449,98.0
1354, 10:29:22,55.702296,190.780185,897.112926,98.0
1355, 10:29:22,55.686277,190.786577,897.296165,98.0
1356, 10:29:22,55.690183,190.794981,897.136364,98.0
1357, 10:29:22,55.732521,190.954664,897.793324,98.0
1358, 10:29:22,55.796362,191.141454,898.959517,98.0
1359, 10:29:22,55.873619,191.525687,899.327415,98.0
1360, 10:29:22,55.983349,192.026752,901.742898,98.0
1361, 10:29:22,56.021386,192.401752,902.089489,98.0
1362, 10:29:22,56.127367,192.910985,904.545455,98.0
1363, 10:29:22,56.172546,193.231179,904.81321,98.0
1364, 10:29:22,56.240057,193.68608,906.454545,98.0
1365, 10:29:22,56.336845,193.989228,906.87571,98.0
1366, 10:29:22,56.39607,194.415483,909.461648,98.0
1367, 10:29:22,56.440972,194.770833,908.764205,98.0
1368, 10:29:22,56.522214,195.157079,910.860085,98.0
1369, 10:29:22,56.604167,195.574337,912.650568,98.0
1370, 10:29:22,56.672033,195.976799,913.414773,98.0
1371, 10:29:22,56.707978,196.268821,913.43679,98.0
1372, 10:29:22,56.444089,195.565223,909.993608,98.0
1373, 10:29:22,55.92223,193.539891,902.503551,98.0
1374, 10:29:22,55.567314,191.65554,897.285511,98.0
1375, 10:29:22,55.436198,190.540128,894.604403,98.0
1376, 10:29:22,55.387824,190.028527,892.895597,98.0
1377, 10:29:22,55.34596,189.682765,892.295455,98.0
1378, 10:29:22,55.30958,189.453835,891.723011,98.0
1379, 10:29:22,55.306266,189.381866,891.12642,98.0
1380, 10:29:23,55.363794,189.506629,892.772727,97.975
1381, 10:29:23,55.395202,189.639205,893.198864,97.975
1382, 10:29:23,55.392124,189.748343,892.930398,97.975
1383, 10:29:23,55.404672,189.853693,893.426136,97.975
1384, 10:29:23,55.450994,189.986979,893.774148,97.975
1385, 10:29:23,55.560724,190.38151,895.965199,97.975
1386, 10:29:23,55.653449,190.762902,897.137074,97.975
1387, 10:29:23,55.71875,191.162405,898.502841,97.975
1388, 10:29:23,55.807371,191.626184,900.166193,97.975
1389, 10:29:23,55.889007,192.050545,900.950994,97.975
1390, 10:29:23,55.947483,192.498698,902.827415,97.975
1391, 10:29:23,55.998895,192.805871,903.576705,97.975
1392, 10:29:23,56.081597,193.241477,904.866477,97.975
1393, 10:29:23,56.171046,193.581795,905.314631,97.975
1394, 10:29:23,56.23911,194.029356,907.636364,97.975
1395, 10:29:23,56.293363,194.388139,906.729403,97.975
1396, 10:29:23,56.372238,194.716146,908.490057,97.975
1397, 10:29:23,56.482008,195.194602,910.431818,97.975
1398, 10:29:23,56.540167,195.570786,912.447443,97.975
1399, 10:29:23,56.523359,195.695076,911.741477,97.975
1400, 10:29:23,56.110914,194.423177,906.627131,97.975
1401, 10:29:23,55.578125,192.120265,898.298295,97.975
1402, 10:29:23,55.296244,190.387784,893.130682,97.975
1403, 10:29:23,55.192314,189.4491,890.984375,97.975
1404, 10:29:23,55.133917,188.887074,889.044034,97.975
1405, 10:29:23,55.088226,188.524148,887.633523,97.975
1406, 10:29:23,55.101562,188.339252,888.43608,97.975
1407, 10:29:23,55.116832,188.45277,888.321733,97.975
1408, 10:29:23,55.175032,188.67661,889.659091,97.975
1409, 10:29:23,55.217053,188.829664,890.446733,97.975
1410, 10:29:24,55.245226,188.944957,890.942472,97.975
1411, 10:29:24,55.290286,189.163944,891.199574,97.975
1412, 10:29:24,55.336174,189.357955,892.071023,97.975
1413, 10:29:24,55.446378,189.733073,893.764915,97.975
1414, 10:29:24,55.543166,190.217566,896.416193,97.975
1415, 10:29:24,55.637271,190.59742,897.166903,97.975
1416, 10:29:24,55.732008,191.070076,899.434659,97.975
1417, 10:29:24,55.806147,191.4317,899.68679,97.975
1418, 10:29:24,55.897135,191.972656,901.085938,97.975
1419, 10:29:24,55.970013,192.423295,902.295455,97.975
1420, 10:29:24,56.04869,192.837831,904.069602,97.975
1421, 10:29:24,56.131037,193.241122,904.730824,97.975
1422, 10:29:24,56.214449,193.645715,907.272017,97.975
1423, 10:29:24,56.306424,194.10535,908.43892,97.975
1424, 10:29:24,56.400805,194.587831,910.450284,97.975
1425, 10:29:24,56.466935,195.011127,911.305398,97.975
1426, 10:29:24,56.514441,195.505445,911.478693,97.975
1427, 10:29:24,56.496962,195.559541,910.786222,97.975
1428, 10:29:24,56.050702,194.161577,905.929688,97.975
1429, 10:29:24,55.631432,192.068537,898.90554,97.975
1430, 10:29:24,55.435882,190.676018,894.808949,97.975
1431, 10:29:24,55.359336,189.933594,892.456676,97.975
1432, 10:29:24,55.346867,189.720052,892.411222,97.975
1433, 10:29:24,55.345407,189.43679,891.444602,97.975
1434, 10:29:24,55.360401,189.421165,892.356534,97.975
1435, 10:29:24,55.433081,189.587595,892.872159,97.975
1436, 10:29:24,55.481495,189.847893,894.172585,97.975
1437, 10:29:24,55.493411,189.941406,894.105824,97.975
1438, 10:29:24,55.506905,190.006984,894.266335,97.975
1439, 10:29:24,55.534249,190.154356,894.667614,97.975
1440, 10:29:25,55.596551,190.463897,896.010653,97.725
1441, 10:29:25,55.701152,190.856297,897.59517,97.725
1442, 10:29:25,55.776239,191.219815,899.199574,97.725
1443, 10:29:25,55.864386,191.715317,900.306108,97.725
1444, 10:29:25,55.931937,192.09884,901.541903,97.725
1445, 10:29:25,56.020241,192.509588,902.659801,97.725
1446, 10:29:25,56.048177,192.804096,903.867188,97.725
1447, 10:29:25,56.142282,193.248816,904.65483,97.725
1448, 10:29:25,56.191919,193.59375,905.741477,97.725
1449, 10:29:25,56.278606,193.993963,906.227983,97.725
1450, 10:29:25,56.332584,194.346236,908.929688,97.725
1451, 10:29:25,56.403567,194.753788,909.568182,97.725
1452, 10:29:25,56.508838,195.287405,911.840909,97.725
1453, 10:29:25,56.547112,195.610559,912.041193,97.725
1454, 10:29:25,56.353062,195.060133,909.349432,97.725
1455, 10:29:25,55.916627,193.345999,902.672585,97.725
1456, 10:29:25,55.57485,191.64974,896.685369,97.725
1457, 10:29:25,55.460543,190.633049,894.894886,97.725
1458, 10:29:25,55.463305,190.29285,894.330966,97.725
1459, 10:29:25,55.457899,190.161577,894.307528,97.725
1460, 10:29:25,55.480429,190.202652,894.403409,97.725
1461, 10:29:25,55.55883,190.474787,895.760653,97.725
1462, 10:29:25,55.631826,190.762429,897.006392,97.725
1463, 10:29:25,55.648043,190.912879,896.272727,97.725
1464, 10:29:25,55.658815,190.891217,897.299006,97.725
1465, 10:29:25,55.660275,190.977983,897.242898,97.725
1466, 10:29:25,55.725616,191.24929,898.461648,97.725
1467, 10:29:25,55.81104,191.602628,899.115767,97.725
1468, 10:29:25,55.88297,192.056108,900.768466,97.725
1469, 10:29:25,55.981455,192.461411,902.575284,97.725
1470, 10:29:26,56.040799,192.833097,903.370739,97.725
1471, 10:29:26,56.150489,193.32268,905.72017,97.725
1472, 10:29:26,56.19985,193.630327,905.287642,97.725
1473, 10:29:26,56.252999,194.090436,907.414773,97.725
1474, 10:29:26,56.345644,194.422348,908.630682,97.725
1475, 10:29:26,56.365254,194.721236,908.850142,97.725
1476, 10:29:26,56.458807,195.148201,910.747159,97.725
1477, 10:29:26,56.509509,195.507221,911.435369,97.725
1478, 10:29:26,56.617779,196.003433,912.659801,97.725
1479, 10:29:26,56.678977,196.328598,913.238636,97.725
1480, 10:29:26,56.660156,196.496094,913.970881,97.725
1481, 10:29:26,56.271228,195.267282,908.055398,97.725
1482, 10:29:26,55.814394,193.337595,901.721591,97.725
1483, 10:29:26,55.548808,191.752959,896.977983,97.725
1484, 10:29:26,55.432055,190.830256,894.93608,97.725
1485, 10:29:26,55.42077,190.375473,893.866477,97.725
1486, 10:29:26,55.357915,189.993253,893.058949,97.725
1487, 10:29:26,55.34304,189.898911,892.589489,97.725
1488, 10:29:26,55.372751,189.97384,893.391335,97.725
1489, 10:29:26,55.421204,190.179332,893.033381,97.725
1490, 10:29:26,55.437776,190.259825,894.215199,97.725
1491, 10:29:26,55.439394,190.326231,894.340909,97.725
1492, 10:29:26,55.46729,190.421283,894.757812,97.725
1493, 10:29:26,55.534091,190.718277,895.068182,97.725
1494, 10:29:26,55.623422,191.03125,897.5,97.725
1495, 10:29:26,55.705729,191.497396,898.620739,97.725
1496, 10:29:26,55.774266,191.935961,900.368608,97.725
1497, 10:29:26,55.848051,192.347183,901.71946,97.725
1498, 10:29:26,55.914654,192.728812,902.162642,97.725
1499, 10:29:26,55.997001,193.09233,903.15625,97.725
1500, 10:29:27,56.087003,193.527107,905.50071,97.975
1501, 10:29:27,56.143584,193.857836,906.291903,97.975
1502, 10:29:27,56.227273,194.250473,907.039773,97.975
1503, 10:29:27,56.283854,194.682528,908.427557,97.975
1504, 10:29:27,56.381353,195.048414,909.486506,97.975
1505, 10:29:27,56.446812,195.471591,910.400568,97.975
1506, 10:29:27,56.54068,195.901397,912.604403,97.975
1507, 10:29:27,56.601878,196.282907,912.694602,97.975
1508, 10:29:27,56.600024,196.377249,913.104403,97.975
1509, 10:29:27,56.259628,195.386837,908.261364,97.975
1510, 10:29:27,55.745502,193.379972,901.680398,97.975
1511, 10:29:27,55.473288,191.778291,895.945312,97.975
1512, 10:29:27,55.380169,190.949219,894.533381,97.975
1513, 10:29:27,55.32264,190.498698,893.259233,97.975
1514, 10:29:27,55.308436,190.319721,893.904119,97.975
1515, 10:29:27,55.30812,190.143584,893.213778,97.975
1516, 10:29:27,55.336293,190.231416,893.064631,97.975
1517, 10:29:27,55.4128,190.540956,894.53267,97.975
1518, 10:29:27,55.436277,190.681937,894.995028,97.975
1519, 10:29:27,55.418087,190.777936,894.21875,97.975
1520, 10:29:27,55.46145,190.930279,895.112926,97.975
1521, 10:29:27,55.535038,191.105587,896.582386,97.975
1522, 10:29:27,55.609454,191.4884,898.84233,97.975
1523, 10:29:27,55.702415,191.847775,899.455966,97.975
1524, 10:29:27,55.784841,192.289654,900.618608,97.975
1525, 10:29:27,55.85172,192.661222,901.629261,97.975
1526, 10:29:27,55.942314,193.087358,903.177557,97.975
1527, 10:29:27,55.968355,193.362926,903.97017,97.975
1528, 10:29:27,56.061632,193.81321,905.759943,97.975
1529, 10:29:27,56.133838,194.197443,906.667614,97.975
1530, 10:29:28,56.188723,194.564749,907.678267,97.975
1531, 10:29:28,56.289299,194.956913,908.690341,97.975
1532, 10:29:28,56.325008,195.247277,909.591619,97.975
1533, 10:29:28,56.414694,195.769176,910.40483,97.975
1534, 10:29:28,56.491793,196.066761,912.295455,97.975
1535, 10:29:28,56.628314,196.60464,913.997159,97.975
1536, 10:29:28,56.663234,196.917259,914.679688,97.975
1537, 10:29:28,56.436553,196.283617,911.267045,97.975
1538, 10:29:28,55.959162,194.536577,904.051847,97.975
1539, 10:29:28,55.593513,192.816998,899.211648,97.975
1540, 10:29:28,55.479246,191.903172,897.796875,97.975
1541, 10:29:28,55.428583,191.509233,896.734375,97.975
1542, 10:29:28,55.432055,191.252131,896.103693,97.975
1543, 10:29:28,55.428898,191.212358,895.853693,97.975
1544, 10:29:28,55.468868,191.301018,896.618608,97.975
1545, 10:29:28,55.517637,191.501302,897.110085,97.975
1546, 10:29:28,55.530224,191.609138,897.433239,97.975
1547, 10:29:28,55.543837,191.613518,897.362926,97.975
1548, 10:29:28,55.567274,191.721236,898.06321,97.975
1549, 10:29:28,55.606652,191.883404,898.527699,97.975
1550, 10:29:28,55.656013,192.213778,899.410511,97.975
1551, 10:29:28,55.73982,192.447206,900.731534,97.975
1552, 10:29:28,55.823943,192.898911,901.606534,97.975
1553, 10:29:28,55.925939,193.289181,902.666903,97.975
1554, 10:29:28,55.976918,193.577533,904.71804,97.975
1555, 10:29:28,56.049203,193.993253,906.010653,97.975
1556, 10:29:28,56.099392,194.322798,906.84304,97.975
1557, 10:29:28,56.166785,194.622988,906.814631,97.975
1558, 10:29:28,56.223366,195.006274,908.318892,97.975
1559, 10:29:28,56.29648,195.397491,909.285511,97.975
1560, 10:29:29,56.384785,195.788826,911.181818,97.975
1561, 10:29:29,56.468198,196.164536,911.90483,97.975
1562, 10:29:29,56.526949,196.497988,912.476562,97.975
1563, 10:29:29,56.508325,196.572325,912.911222,97.975
1564, 10:29:29,56.11407,195.35026,907.746449,97.975
1565, 10:29:29,55.677675,193.470052,900.766335,97.975
1566, 10:29:29,55.423572,192.055279,896.976562,97.975
1567, 10:29:29,55.357757,191.390033,895.581676,97.975
1568, 10:29:29,55.304569,191.051491,894.53054,97.975
1569, 10:29:29,55.30378,190.898556,893.919744,97.975
1570, 10:29:29,55.29944,190.788471,894.151278,97.975
1571, 10:29:29,55.341304,191.015388,894.629261,97.975
1572, 10:29:29,55.420415,191.286813,896.203835,97.975
1573, 10:29:29,55.441998,191.367661,896.171875,97.975
1574, 10:29:29,55.440854,191.404948,896.946733,97.975
1575, 10:29:29,55.475024,191.50651,896.93679,97.975
1576, 10:29:29,55.546875,191.780777,898.036932,97.975
1577, 10:29:29,55.645439,192.183475,899.578125,97.975
1578, 10:29:29,55.718513,192.601562,901.080966,97.975
1579, 10:29:29,55.81538,193.002012,902.310369,97.975
1580, 10:29:29,55.905106,193.365412,903.993608,97.975
1581, 10:29:29,55.94405,193.783381,904.180398,97.975
1582, 10:29:29,56.025016,194.150331,905.830966,97.975
1583, 10:29:29,56.126026,194.564631,907.109375,97.975
1584, 10:29:29,56.176136,194.919981,908.491477,97.975
1585, 10:29:29,56.267716,195.320668,909.639915,97.975
1586, 10:29:29,56.333373,195.71366,910.577415,97.975
1587, 10:29:29,56.410235,196.0058,911.477983,97.975
1588, 10:29:29,56.525095,196.52178,913.659091,97.975
1589, 10:29:29,56.577967,196.879261,913.806818,97.975
1590, 10:29:30,56.656289,197.275213,914.912642,97.975
1591, 10:29:30,56.600655,197.234257,913.948153,97.975
1592, 10:29:30,56.125079,195.655066,907.694602,97.975
1593, 10:29:30,55.642835,193.611742,900.602273,97.975
1594, 10:29:30,55.39536,192.087595,897.102273,97.975
1595, 10:29:30,55.325481,191.383641,895.389915,97.975
1596, 10:29:30,55.271188,190.921046,893.952415,97.975
1597, 10:29:30,55.203125,190.456913,892.207386,97.975
1598, 10:29:30,55.192472,190.338305,892.75142,97.975
1599, 10:29:30,55.228575,190.463187,893.102983,97.975
1600, 10:29:30,55.34596,190.804451,894.636364,97.975
1601, 10:29:30,55.346907,190.924242,895.017045,97.975
1602, 10:29:30,55.36699,190.969342,895.409801,97.975
1603, 10:29:30,55.409959,191.095881,895.021307,97.975
1604, 10:29:30,55.47889,191.373224,896.591619,97.975
1605, 10:29:30,55.529198,191.662879,897.542614,97.975
1606, 10:29:30,55.623422,192.05303,899.53125,97.975
1607, 10:29:30,55.733625,192.552675,900.549006,97.975
1608, 10:29:30,55.828914,192.881629,902.721591,97.975
1609, 10:29:30,55.891572,193.276042,902.96875,97.975
1610, 10:29:30,55.959438,193.70928,905.539773,97.975
1611, 10:29:30,56.031211,194.069484,905.414062,97.975
1612, 10:29:30,56.097893,194.547467,905.710938,97.975
1613, 10:29:30,56.209912,194.948864,907.823864,97.975
1614, 10:29:30,56.306305,195.385298,910.050426,97.975
1615, 10:29:30,56.381629,195.776515,911.204545,97.975
1616, 10:29:30,56.478338,196.200166,911.837358,97.975
1617, 10:29:30,56.569405,196.600734,913.522017,97.975
1618, 10:29:30,56.671165,197.172112,915.288352,97.975
1619, 10:29:30,56.756826,197.604285,916.887074,97.975
1620, 10:29:31,56.745186,197.774858,916.59233,97.975
1621, 10:29:31,56.370305,196.654001,911.108665,97.975
1622, 10:29:31,55.864307,194.542259,903.81321,97.975
1623, 10:29:31,55.608902,192.989583,899.434659,97.975
1624, 10:29:31,55.543048,192.318063,897.857244,97.975
1625, 10:29:31,55.496252,191.86044,897.355824,97.975
1626, 10:29:31,55.488715,191.713778,896.71733,97.975
1627, 10:29:31,55.472143,191.596828,896.507102,97.975
1628, 10:29:31,55.534407,191.720644,897.894886,97.975
1629, 10:29:31,55.616596,191.926965,898.232244,97.975
1630, 10:29:31,55.650608,192.086766,898.986506,97.975
1631, 10:29:31,55.65992,192.154474,898.739347,97.975
1632, 10:29:31,55.674479,192.255919,899.74858,97.975
1633, 10:29:31,55.717172,192.488163,899.974432,97.975
1634, 10:29:31,55.817353,192.843158,901.59304,97.975
1635, 10:29:31,55.913431,193.201941,903.004261,97.975
1636, 10:29:31,55.993805,193.616359,904.232244,97.975
1637, 10:29:31,56.095486,194.038826,905.335227,97.975
1638, 10:29:31,56.178464,194.451586,907.053267,97.975
1639, 10:29:31,56.234848,194.832386,907.625,97.975
1640, 10:29:31,56.307213,195.285275,909.200284,97.975
1641, 10:29:31,56.377565,195.656368,910.083097,97.975
1642, 10:29:31,56.47167,196.066525,911.99858,97.975
1643, 10:29:31,56.509706,196.45715,912.90767,97.975
1644, 10:29:31,56.598643,196.805398,913.201705,97.975
1645, 10:29:31,56.691919,197.19839,914.443182,97.975
1646, 10:29:31,56.77983,197.655303,915.835227,97.975
1647, 10:29:31,56.896228,198.152699,917.643466,97.975
1648, 10:29:31,56.939552,198.418087,918.980114,97.975
1649, 10:29:31,56.665562,197.674242,914.963068,97.975
1650, 10:29:32,56.200363,195.959991,908.257102,97.975
1651, 10:29:32,55.933515,194.44401,904.183949,97.975
1652, 10:29:32,55.831795,193.654001,901.645597,97.975
1653, 10:29:32,55.830177,193.511837,901.778409,97.975
1654, 10:29:32,55.828559,193.41276,902.303267,97.975
1655, 10:29:32,55.885496,193.508286,902.549716,97.975
1656, 10:29:32,55.954111,193.730705,903.634233,97.975
1657, 10:29:32,56.012745,194.013139,904.527699,97.975
1658, 10:29:32,56.031368,194.090791,904.857244,97.975
1659, 10:29:32,56.072285,194.24858,904.607955,97.975
1660, 10:29:32,56.088226,194.29214,905.252841,97.975
1661, 10:29:32,56.150174,194.578362,905.700284,97.975
1662, 10:29:32,56.229956,194.92661,907.5625,97.975
1663, 10:29:32,56.325481,195.334399,908.830256,97.975
1664, 10:29:32,56.403567,195.735795,911.215909,97.975
1665, 10:29:32,56.498027,196.123816,911.31392,97.975
1666, 10:29:32,56.564157,196.48982,912.848011,97.975
1667, 10:29:32,56.674124,196.957505,913.767756,97.975
1668, 10:29:32,56.731376,197.324337,914.971591,97.975
1669, 10:29:32,56.783381,197.627131,916.15483,97.975
1670, 10:29:32,56.884588,198.083215,917.723722,97.975
1671, 10:29:32,56.960819,198.465317,918.084517,97.975
1672, 10:29:32,57.032355,198.825758,919.786932,97.975
1673, 10:29:32,57.138534,199.252723,922.039062,97.975
1674, 10:29:32,57.167653,199.751539,922.196733,97.975
1675, 10:29:32,57.158657,199.800781,921.770597,97.975
1676, 10:29:32,56.773556,198.402107,915.858665,97.975
1677, 10:29:32,56.347498,196.635772,909.462358,97.975
1678, 10:29:32,56.141611,195.345762,907.023438,97.975
1679, 10:29:32,56.098169,194.875473,905.954545,97.975
1680, 10:29:33,56.106692,194.671875,905.832386,97.975
1681, 10:29:33,56.116004,194.616477,905.775568,97.975
1682, 10:29:33,56.133168,194.634825,906.075994,97.975
1683, 10:29:33,56.218355,194.883286,906.600852,97.975
1684, 10:29:33,56.265388,195.080256,908.487216,97.975
1685, 10:29:33,56.278488,195.182528,908.697443,97.975
1686, 10:29:33,56.299164,195.260653,909.473011,97.975
1687, 10:29:33,56.320036,195.367306,908.527699,97.975
1688, 10:29:33,56.378748,195.592211,909.743608,97.975
1689, 10:29:33,56.477509,195.993134,910.973011,97.975
1690, 10:29:33,56.520833,196.257102,912.025568,97.975
1691, 10:29:33,56.619634,196.638731,913.542614,97.975
1692, 10:29:33,56.705769,197.005563,915.144176,97.975
1693, 10:29:33,56.789457,197.403883,916.0,97.975
1694, 10:29:33,56.888771,197.850497,917.216619,97.975
1695, 10:29:33,56.936908,198.230232,917.804688,97.975
1696, 10:29:33,57.02545,198.551728,919.435369,97.975
1697, 10:29:33,57.090672,198.922112,920.870739,97.975
1698, 10:29:33,57.176491,199.289418,921.816051,97.975
1699, 10:29:33,57.230745,199.61553,923.193182,97.975
1700, 10:29:33,57.343947,200.092448,924.702415,97.975
1701, 10:29:33,57.424479,200.581203,925.99858,97.975
1702, 10:29:33,57.505642,200.939749,927.820312,97.975
1703, 10:29:33,57.470407,200.980824,926.867898,97.975
1704, 10:29:33,57.039339,199.572562,920.816051,97.975
1705, 10:29:33,56.593,197.61849,913.901278,97.975
1706, 10:29:33,56.416509,196.293087,910.721591,97.975
1707, 10:29:33,56.354719,195.754972,909.319602,97.975
1708, 10:29:33,56.322049,195.455256,908.714489,97.975
1709, 10:29:33,56.316209,195.280066,908.632102,97.975
1710, 10:29:34,56.330295,195.210109,908.90554,97.975
1711, 10:29:34,56.378985,195.288944,910.017756,97.975
1712, 10:29:34,56.42223,195.480232,910.148438,97.975
1713, 10:29:34,56.416154,195.543442,910.15554,97.975
1714, 10:29:34,56.444089,195.644768,910.817472,97.975
1715, 10:29:34,56.459517,195.683475,910.745739,97.975
1716, 10:29:34,56.505406,195.885062,911.850142,97.975
1717, 10:29:34,56.607955,196.217803,912.980114,97.975
1718, 10:29:34,56.668284,196.502486,913.676847,97.975
1719, 10:29:34,56.763613,196.922467,915.074574,97.975
1720, 10:29:34,56.844855,197.309186,916.457386,97.975
1721, 10:29:34,56.915641,197.641335,917.796875,97.975
1722, 10:29:34,56.988873,198.086411,918.87358,97.975
1723, 10:29:34,57.062461,198.412287,918.888494,97.975
1724, 10:29:34,57.135338,198.736506,920.805398,97.975
1725, 10:29:34,57.254577,199.187027,922.849432,97.975
1726, 10:29:34,57.30157,199.560014,922.93679,97.975
1727, 10:29:34,57.372001,199.949811,924.585227,97.975
1728, 10:29:34,57.468868,200.386719,926.334517,97.975
1729, 10:29:34,57.572877,200.932647,928.439631,97.975
1730, 10:29:34,57.648556,201.295099,929.622869,97.975
1731, 10:29:34,57.733033,201.691051,930.583807,97.975
1732, 10:29:34,57.671244,201.609848,930.0,97.975
1733, 10:29:34,57.264205,200.079545,923.352273,97.975
1734, 10:29:34,56.896307,198.244792,916.883523,97.975
1735, 10:29:34,56.721591,197.140152,914.394886,97.975
1736, 10:29:34,56.684935,196.688329,913.962358,97.975
1737, 10:29:34,56.691604,196.565341,913.71875,97.975
1738, 10:29:34,56.692669,196.45348,912.925426,97.975
1739, 10:29:34,56.731297,196.476089,913.93608,97.975
1740, 10:29:35,56.795415,196.625355,914.425426,97.975
1741, 10:29:35,56.828638,196.81688,915.520597,97.975
1742, 10:29:35,56.819642,196.81688,915.790483,97.975
1743, 10:29:35,56.819444,196.815341,915.289773,97.975
1744, 10:29:35,56.847735,196.863755,914.918324,97.975
1745, 10:29:35,56.901002,197.059067,915.493608,97.975
1746, 10:29:35,56.988676,197.465554,917.898438,97.975
1747, 10:29:35,57.095052,197.839134,919.054688,97.975
1748, 10:29:35,57.193734,198.193419,920.296875,97.975
1749, 10:29:35,57.277265,198.584635,921.581676,97.975
1750, 10:29:35,57.334122,198.906723,923.002841,97.975
1751, 10:29:35,57.423611,199.258996,924.170455,97.975
1752, 10:29:35,57.474984,199.577888,925.086648,97.975
1753, 10:29:35,57.573943,199.998816,925.84517,97.975
1754, 10:29:35,57.638534,200.255563,927.368608,97.975
1755, 10:29:35,57.72747,200.71366,928.679688,97.975
1756, 10:29:35,57.828086,201.114465,930.831676,97.975
1757, 10:29:35,57.894492,201.472775,931.711648,97.975
1758, 10:29:35,57.975734,201.975024,932.702415,97.975
1759, 10:29:35,57.85614,201.654119,931.879261,97.975
1760, 10:29:35,57.546836,200.402817,926.973722,97.975
1761, 10:29:35,57.236032,198.781487,921.083807,97.975
1762, 10:29:35,57.127604,197.861979,918.825284,97.975
1763, 10:29:35,57.121528,197.576705,918.525568,97.975
1764, 10:29:35,57.145597,197.425426,918.367898,97.975
1765, 10:29:35,57.171638,197.454309,919.09233,97.975
1766, 10:29:35,57.21587,197.641454,919.269176,97.975
1767, 10:29:35,57.254932,197.838187,919.137074,97.975
1768, 10:29:35,57.292022,198.048887,920.816051,97.975
1769, 10:29:35,57.292416,198.047704,920.675426,97.975
1770, 10:29:36,57.309383,198.12133,921.304688,97.975
1771, 10:29:36,57.363991,198.340554,921.591619,97.975
1772, 10:29:36,57.4259,198.575047,923.37358,97.975
1773, 10:29:36,57.541943,198.955374,924.095881,97.975
1774, 10:29:36,57.61194,199.267164,925.389915,97.975
1775, 10:29:36,57.698785,199.743134,927.15483,97.975
1776, 10:29:36,57.77107,200.042377,928.12358,97.975
1777, 10:29:36,57.861348,200.433002,929.882102,97.975
1778, 10:29:36,57.937382,200.824455,930.520597,97.975
1779, 10:29:36,58.01602,201.138021,931.171875,97.975
1780, 10:29:36,58.080453,201.528291,933.101562,97.975
1781, 10:29:36,58.144216,201.876302,934.365767,97.975
1782, 10:29:36,58.259825,202.338187,935.850142,97.975
1783, 10:29:36,58.34158,202.653527,937.267756,97.975
1784, 10:29:36,58.398319,203.029238,938.502131,97.975
1785, 10:29:36,58.45131,203.357718,939.228693,97.975
1786, 10:29:36,58.197996,202.441525,935.71733,97.975
1787, 10:29:36,57.804096,200.638613,928.720881,97.975
1788, 10:29:36,57.564552,199.118371,924.323864,97.975
1789, 10:29:36,57.482047,198.248224,921.398438,97.975
1790, 10:29:36,57.439315,197.894176,921.21733,97.975
1791, 10:29:36,57.441998,197.732718,921.757102,97.975
1792, 10:29:36,57.416193,197.536932,920.869318,97.975
1793, 10:29:36,57.465278,197.578125,921.198864,97.975
1794, 10:29:36,57.499132,197.699574,922.012784,97.975
1795, 10:29:36,57.520715,197.865175,922.279119,97.975
1796, 10:29:36,57.553307,197.918916,922.831676,97.975
1797, 10:29:36,57.549834,197.969579,923.229403,97.975
1798, 10:29:36,57.581558,198.10831,923.899858,97.975
1799, 10:29:36,57.658894,198.395241,924.297585,97.975
1800, 10:29:37,57.730863,198.71295,926.470881,97.725
1801, 10:29:37,57.830453,199.075639,926.959517,97.725
1802, 10:29:37,57.89828,199.407907,928.651989,97.725
1803, 10:29:37,57.964489,199.821023,929.329545,97.725
1804, 10:29:37,58.011955,200.149029,930.567472,97.725
1805, 10:29:37,58.103141,200.539062,931.453125,97.725
1806, 10:29:37,58.169586,200.930634,933.223011,97.725
1807, 10:29:37,58.261482,201.332268,934.141335,97.725
1808, 10:29:37,58.341501,201.695431,935.729403,97.725
1809, 10:29:37,58.382812,202.006392,935.87642,97.725
1810, 10:29:37,58.470052,202.341027,937.739347,97.725
1811, 10:29:37,58.574653,202.817708,939.338068,97.725
1812, 10:29:37,58.638771,203.146899,940.364347,97.725
1813, 10:29:37,58.626776,203.21508,940.151278,97.725
1814, 10:29:37,58.261087,201.912997,935.333097,97.725
1815, 10:29:37,57.891888,200.045928,928.360795,97.725
1816, 10:29:37,57.711608,198.646662,924.985085,97.725
1817, 10:29:37,57.647057,197.907552,922.962358,97.725
1818, 10:29:37,57.638731,197.566761,922.889205,97.725
1819, 10:29:37,57.598603,197.308594,921.459517,97.725
1820, 10:29:37,57.618529,197.164773,921.940341,97.725
1821, 10:29:37,57.632378,197.303859,921.93679,97.725
1822, 10:29:37,57.702336,197.502367,923.678977,97.725
1823, 10:29:37,57.718592,197.628788,923.730114,97.725
1824, 10:29:37,57.726247,197.649384,923.933239,97.725
1825, 10:29:37,57.770241,197.747751,923.975142,97.725
1826, 10:29:37,57.794547,197.888376,923.852983,97.725
1827, 10:29:37,57.909683,198.355942,926.28054,97.725
1828, 10:29:37,57.977075,198.703954,926.689631,97.725
1829, 10:29:37,58.013336,199.161695,927.703125,97.725
1830, 10:29:38,58.116122,199.515507,930.232244,97.725
1831, 10:29:38,58.204861,199.874527,931.198864,97.725
1832, 10:29:38,58.278133,200.258168,932.210938,97.725
1833, 10:29:38,58.349432,200.572917,933.605114,97.725
1834, 10:29:38,58.406487,200.914062,934.495739,97.725
1835, 10:29:38,58.475892,201.373224,935.722301,97.725
1836, 10:29:38,58.538431,201.714725,937.526989,97.725
1837, 10:29:38,58.64244,202.174953,938.629261,97.725
1838, 10:29:38,58.691959,202.519058,939.193892,97.725
1839, 10:29:38,58.783578,202.898556,941.320312,97.725
1840, 10:29:38,58.837516,203.265862,942.262784,97.725
1841, 10:29:38,58.795415,203.360677,942.050426,97.725
1842, 10:29:38,58.491872,202.200521,938.038352,97.725
1843, 10:29:38,58.137113,200.401397,930.527699,97.725
1844, 10:29:38,57.969776,199.186316,927.285511,97.725
1845, 10:29:38,57.944563,198.493253,926.149858,97.725
1846, 10:29:38,57.937184,198.367424,925.696023,97.725
1847, 10:29:38,57.936553,198.21733,925.3125,97.725
1848, 10:29:38,57.94985,198.195194,926.264915,97.725
1849, 10:29:38,58.011127,198.361979,926.74858,97.725
1850, 10:29:38,58.044508,198.449811,927.065341,97.725
1851, 10:29:38,58.044744,198.517756,926.930398,97.725
1852, 10:29:38,58.03346,198.508523,926.809659,97.725
1853, 10:29:38,58.060251,198.607363,926.894176,97.725
1854, 10:29:38,58.112729,198.796993,928.029119,97.725
1855, 10:29:38,58.175071,199.125592,928.702415,97.725
1856, 10:29:38,58.243805,199.408973,929.524858,97.725
1857, 10:29:38,58.294034,199.758996,931.803977,97.725
1858, 10:29:38,58.382181,200.118134,933.586648,97.725
1859, 10:29:38,58.430319,200.457623,933.009943,97.725
1860, 10:29:39,58.446457,200.884351,933.700994,97.725
1861, 10:29:39,58.528015,201.145123,934.896307,97.725
1862, 10:29:39,58.60026,201.456558,936.495028,97.725
1863, 10:29:39,58.662603,201.784683,937.807528,97.725
1864, 10:29:39,58.741241,202.187737,939.316761,97.725
1865, 10:29:39,58.795849,202.555161,940.194602,97.725
1866, 10:29:39,58.851089,202.959991,941.691761,97.725
1867, 10:29:39,58.852865,203.07706,941.720881,97.725
1868, 10:29:39,58.605311,202.269531,938.066051,97.725
1869, 10:29:39,58.290286,200.676728,932.293324,97.725
1870, 10:29:39,58.087437,199.375,928.792614,97.725
1871, 10:29:39,58.064197,198.801491,926.897017,97.725
1872, 10:29:39,58.069839,198.727036,926.975852,97.725
1873, 10:29:39,58.070115,198.666312,927.225142,97.725
1874, 10:29:39,58.068182,198.742898,927.803977,97.725
1875, 10:29:39,58.120818,198.916903,928.254261,97.725
1876, 10:29:39,58.156329,199.098722,929.680398,97.725
1877, 10:29:39,58.174834,199.16134,929.135653,97.725
1878, 10:29:39,58.187303,199.163234,929.325994,97.725
1879, 10:29:39,58.186514,199.31617,929.485085,97.725
1880, 10:29:39,58.251578,199.545928,930.082386,97.725
1881, 10:29:39,58.302833,199.845999,931.254972,97.725
1882, 10:29:39,58.39461,200.293205,933.023438,97.725
1883, 10:29:39,58.435014,200.619437,933.756392,97.725
1884, 10:29:39,58.502367,200.929924,935.107955,97.725
1885, 10:29:39,58.584991,201.384706,936.640625,97.725
1886, 10:29:39,58.626736,201.636837,937.798295,97.725
1887, 10:29:39,58.672743,202.006866,938.28267,97.725
1888, 10:29:39,58.741241,202.33215,940.015625,97.725
1889, 10:29:39,58.794626,202.761245,940.078835,97.725
1890, 10:29:40,58.847893,203.062145,941.213778,97.725
1891, 10:29:40,58.874645,203.439749,941.87429,97.725
1892, 10:29:40,58.965633,203.894531,943.804688,97.725
1893, 10:29:40,59.000237,204.062737,944.53267,97.725
1894, 10:29:40,58.757378,203.320431,941.095881,97.725
1895, 10:29:40,58.354798,201.600852,934.508523,97.725
1896, 10:29:40,58.104522,200.106179,930.387074,97.725
1897, 10:29:40,58.005997,199.32339,927.173295,97.725
1898, 10:29:40,57.962003,198.991596,927.253551,97.725
1899, 10:29:40,57.916667,198.651042,926.065341,97.725
1900, 10:29:40,57.891533,198.469105,926.104403,97.725
1901, 10:29:40,57.915917,198.521899,925.818892,97.725
1902, 10:29:40,57.94764,198.596236,926.816051,97.725
1903, 10:29:40,57.934422,198.648438,926.674716,97.725
1904, 10:29:40,57.936829,198.655185,926.769176,97.725
1905, 10:29:40,57.948509,198.743726,927.524858,97.725
1906, 10:29:40,57.995265,198.909091,927.519886,97.725
1907, 10:29:40,58.006747,198.992306,928.220881,97.725
1908, 10:29:40,58.061277,199.268584,929.429688,97.725
1909, 10:29:40,58.125986,199.585819,929.78196,97.725
1910, 10:29:40,58.165049,199.894295,930.147017,97.725
1911, 10:29:40,58.208215,200.23544,931.307528,97.725
1912, 10:29:40,58.270241,200.597656,932.833097,97.725
1913, 10:29:40,58.370541,200.989938,933.90554,97.725
1914, 10:29:40,58.402857,201.289536,935.109375,97.725
1915, 10:29:40,58.441722,201.586056,936.121449,97.725
1916, 10:29:40,58.489938,201.845762,936.674006,97.725
1917, 10:29:40,58.559186,202.15767,937.900568,97.725
1918, 10:29:40,58.63009,202.571615,939.443892,97.725
1919, 10:29:40,58.671362,202.904711,940.260653,97.725
1920, 10:29:41,58.711253,203.220881,940.992898,97.725
1921, 10:29:41,58.561592,202.759588,939.21946,97.725
1922, 10:29:41,58.083807,201.103693,932.360795,97.725
1923, 10:29:41,57.843434,199.504261,926.659091,97.725
1924, 10:29:41,57.716974,198.576586,924.578835,97.725
1925, 10:29:41,57.659959,198.103456,923.291193,97.725
1926, 10:29:41,57.602075,197.747041,922.181108,97.725
1927, 10:29:41,57.55232,197.488873,921.825284,97.725
1928, 10:29:41,57.556108,197.497869,922.481534,97.725
1929, 10:29:41,57.59087,197.607363,922.240767,97.725
1930, 10:29:41,57.597064,197.708807,923.355114,97.725
1931, 10:29:41,57.599432,197.708333,923.0,97.725
1932, 10:29:41,57.602667,197.77107,922.99858,97.725
1933, 10:29:41,57.633996,197.869318,923.190341,97.725
1934, 10:29:41,57.676334,198.118016,924.514915,97.725
1935, 10:29:41,57.742622,198.364228,924.480824,97.725
1936, 10:29:41,57.754972,198.557055,925.549716,97.725
1937, 10:29:41,57.837674,198.91643,926.166193,97.725
1938, 10:29:41,57.927872,199.298769,927.988636,97.725
1939, 10:29:41,57.971828,199.640388,929.430398,97.725
1940, 10:29:41,58.01965,200.001657,930.34233,97.725
1941, 10:29:41,58.062224,200.310251,930.477983,97.725
1942, 10:29:41,58.082899,200.551728,931.946733,97.725
1943, 10:29:41,58.140467,200.822917,933.107955,97.725
1944, 10:29:41,58.20206,201.104759,933.838778,97.725
1945, 10:29:41,58.27328,201.51965,934.634943,97.725
1946, 10:29:41,58.316761,201.774148,935.678977,97.725
1947, 10:29:41,58.372277,202.154238,936.547585,97.725
1948, 10:29:41,58.410669,202.401042,937.769886,97.725
1949, 10:29:41,58.175979,201.658617,933.897727,97.725
1950, 10:29:42,57.780777,199.963542,928.613636,97.725
1951, 10:29:42,57.53054,198.565578,923.481534,97.725
1952, 10:29:42,57.444642,197.980232,922.134233,97.725
1953, 10:29:42,57.383404,197.610914,921.165483,97.725
1954, 10:29:42,57.372711,197.49929,920.916193,97.725
1955, 10:29:42,57.349116,197.38447,920.519886,97.725
1956, 10:29:42,57.399345,197.449455,921.409801,97.725
1957, 10:29:42,57.417337,197.580137,921.435369,97.725
1958, 10:29:42,57.391967,197.504025,920.961648,97.725
1959, 10:29:42,57.399069,197.526752,920.828125,97.725
1960, 10:29:42,57.397806,197.505445,921.004261,97.725
1961, 10:29:42,57.402817,197.611387,921.480824,97.725
1962, 10:29:42,57.423769,197.741004,922.363636,97.725
1963, 10:29:42,57.456282,197.928977,923.005682,97.725
1964, 10:29:42,57.515467,198.231534,922.846591,97.725
1965, 10:29:42,57.580177,198.485322,923.798295,97.725
1966, 10:29:42,57.649779,198.735322,925.386364,97.725
1967, 10:29:42,57.663628,198.94401,925.203835,97.725
1968, 10:29:42,57.70131,199.129498,926.294034,97.725
1969, 10:29:42,57.756668,199.478338,927.176847,97.725
1970, 10:29:42,57.795691,199.756866,928.53267,97.725
1971, 10:29:42,57.85614,200.117661,928.953125,97.725
1972, 10:29:42,57.9302,200.428385,930.81179,97.725
1973, 10:29:42,57.988084,200.752604,931.555398,97.725
1974, 10:29:42,57.971394,200.814276,931.692472,97.725
1975, 10:29:42,57.687539,199.853338,927.818892,97.725
1976, 10:29:42,57.313999,198.256866,922.115057,97.725
1977, 10:29:42,57.090672,196.939631,917.677557,97.725
1978, 10:29:42,57.005287,196.458097,916.18892,97.725
1979, 10:29:42,56.955926,196.124882,915.649858,97.725
1980, 10:29:43,56.926728,195.973366,914.985085,97.725
1981, 10:29:43,56.905895,195.831795,915.135653,97.725
1982, 10:29:43,56.934896,195.981297,915.990057,97.725
1983, 10:29:43,56.979995,196.167259,916.503551,97.725
1984, 10:29:43,56.981376,196.268939,916.622159,97.725
1985, 10:29:43,56.968908,196.199337,915.627841,97.725
1986, 10:29:43,56.969618,196.18679,916.40483,97.725
1987, 10:29:43,57.01093,196.39169,916.600142,97.725
1988, 10:29:43,57.04798,196.647254,917.505682,97.725
1989, 10:29:43,57.129182,196.928267,918.700284,97.725
1990, 10:29:43,57.238202,197.372277,920.333097,97.725
1991, 10:29:43,57.257457,197.572088,920.992188,97.725
1992, 10:29:43,57.328717,197.930279,921.862926,97.725
1993, 10:29:43,57.344934,198.198627,922.072443,97.725
1994, 10:29:43,57.403409,198.523201,923.264205,97.725
1995, 10:29:43,57.448548,198.762311,924.210227,97.725
1996, 10:29:43,57.531368,199.110204,925.357244,97.725
1997, 10:29:43,57.595131,199.429806,926.899858,97.725
1998, 10:29:43,57.67953,199.793797,927.93608,97.725
1999, 10:29:43,57.731771,200.081676,928.629261,97.725
2000, 10:29:43,57.799361,200.453007,929.987926,97.725
2001, 10:29:43,57.754814,200.437263,929.015625,97.725
2002, 10:29:43,57.385811,199.076468,924.453125,97.725
2003, 10:29:43,56.990728,197.383168,916.941051,97.725
2004, 10:29:43,56.801215,196.200994,914.933239,97.725
2005, 10:29:43,56.718513,195.645597,912.714489,97.725
2006, 10:29:43,56.684935,195.376776,912.397017,97.725
2007, 10:29:43,56.654514,195.111742,911.673295,97.725
2008, 10:29:43,56.658617,195.048769,912.519886,97.725
2009, 10:29:43,56.700718,195.23473,912.337358,97.725
2010, 10:29:44,56.73402,195.33795,913.49929,97.475
2011, 10:29:44,56.718474,195.346709,912.549006,97.475
2012, 10:29:44,56.720328,195.344697,913.460227,97.475
2013, 10:29:44,56.712634,195.394058,912.546165,97.475
2014, 10:29:44,56.778606,195.60902,913.520597,97.475
2015, 10:29:44,56.796402,195.924716,914.267045,97.475
2016, 10:29:44,56.862926,196.211884,915.632102,97.475
2017, 10:29:44,56.985401,196.643703,916.711648,97.475
2018, 10:29:44,57.048217,197.012547,918.370739,97.475
2019, 10:29:44,57.133049,197.340909,919.53125,97.475
2020, 10:29:44,57.188408,197.658973,920.033381,97.475
2021, 10:29:44,57.244792,197.976799,920.821023,97.475
2022, 10:29:44,57.284643,198.26965,922.009943,97.475
2023, 10:29:44,57.346591,198.608902,923.113636,97.475
2024, 10:29:44,57.420099,198.896662,924.138494,97.475
2025, 10:29:44,57.521504,199.350497,925.870028,97.475
2026, 10:29:44,57.583333,199.762311,926.477273,97.475
2027, 10:29:44,57.581321,199.89169,927.338778,97.475
2028, 10:29:44,57.333649,199.084754,923.039773,97.475
2029, 10:29:44,56.908736,197.313329,916.96804,97.475
2030, 10:29:44,56.672585,195.945786,913.396307,97.475
2031, 10:29:44,56.597222,195.261837,911.852273,97.475
2032, 10:29:44,56.571851,195.04652,911.648438,97.475
2033, 10:29:44,56.530421,194.847893,910.516335,97.475
2034, 10:29:44,56.5305,194.784683,910.941051,97.475
2035, 10:29:44,56.589528,194.897372,911.145597,97.475
2036, 10:29:44,56.59446,195.006866,911.870739,97.475
2037, 10:29:44,56.620739,195.082386,911.664773,97.475
2038, 10:29:44,56.600773,195.095881,911.725852,97.475
2039, 10:29:44,56.6134,195.100142,911.541193,97.475
2040, 10:29:45,56.667693,195.348722,911.947443,97.475
2041, 10:29:45,56.756037,195.712713,913.645597,97.475
2042, 10:29:45,56.841698,196.113163,915.721591,97.475
2043, 10:29:45,56.904435,196.429214,916.43892,97.475
2044, 10:29:45,56.950679,196.730824,917.447443,97.475
2045, 10:29:45,57.035196,197.13447,917.65625,97.475
2046, 10:29:45,57.04218,197.449455,918.316051,97.475
2047, 10:29:45,57.090988,197.647964,918.691761,97.475
2048, 10:29:45,57.163194,197.956439,920.78125,97.475
2049, 10:29:45,57.244279,198.343632,921.877131,97.475
2050, 10:29:45,57.302715,198.669981,922.653409,97.475
2051, 10:29:45,57.353693,198.956439,922.389205,97.475
2052, 10:29:45,57.387705,199.182055,923.262784,97.475
2053, 10:29:45,57.197325,198.616596,921.191051,97.475
2054, 10:29:45,56.767992,196.820549,915.207386,97.475
2055, 10:29:45,56.468553,195.160866,910.081676,97.475
2056, 10:29:45,56.356574,194.352865,908.253551,97.475
2057, 10:29:45,56.293955,194.025331,906.677557,97.475
2058, 10:29:45,56.271978,193.661577,906.517756,97.475
2059, 10:29:45,56.251618,193.578243,905.838778,97.475
2060, 10:29:45,56.283617,193.705492,906.454545,97.475
2061, 10:29:45,56.355271,193.897254,907.553977,97.475
2062, 10:29:45,56.363281,194.044863,907.71804,97.475
2063, 10:29:45,56.384391,194.129025,908.132102,97.475
2064, 10:29:45,56.403725,194.230114,908.801136,97.475
2065, 10:29:45,56.453835,194.414062,908.893466,97.475
2066, 10:29:45,56.508799,194.727628,909.735085,97.475
2067, 10:29:45,56.575797,195.102391,911.085938,97.475
2068, 10:29:45,56.673729,195.450639,912.573153,97.475
2069, 10:29:45,56.734493,195.765033,913.058949,97.475
2070, 10:29:46,56.804924,196.238636,914.528409,97.475
2071, 10:29:46,56.813447,196.402936,914.684659,97.475
2072, 10:29:46,56.913668,196.850852,916.835227,97.475
2073, 10:29:46,56.956005,197.133641,916.790483,97.475
2074, 10:29:46,57.024306,197.584754,918.673295,97.475
2075, 10:29:46,57.10322,197.943655,919.363636,97.475
2076, 10:29:46,57.177399,198.273201,920.491477,97.475
2077, 10:29:46,57.137468,198.461648,919.926136,97.475
2078, 10:29:46,56.878117,197.479995,916.56179,97.475
2079, 10:29:46,56.477786,195.658262,909.381392,97.475
2080, 10:29:46,56.252367,194.348011,906.315341,97.475
2081, 10:29:46,56.162247,193.714015,905.241477,97.475
2082, 10:29:46,56.120936,193.45277,905.145597,97.475
2083, 10:29:46,56.086056,193.24491,902.992188,97.475
2084, 10:29:46,56.10322,193.250947,903.701705,97.475
2085, 10:29:46,56.154001,193.374408,904.601562,97.475
2086, 10:29:46,56.217448,193.641927,905.976562,97.475
2087, 10:29:46,56.242345,193.745502,905.81392,97.475
2088, 10:29:46,56.244003,193.823864,906.340909,97.475
2089, 10:29:46,56.265862,193.968987,906.612216,97.475
2090, 10:29:46,56.313052,194.241714,907.580966,97.475
2091, 10:29:46,56.405619,194.569602,908.934659,97.475
2092, 10:29:46,56.460188,194.960109,909.857244,97.475
2093, 10:29:46,56.548059,195.327415,910.77983,97.475
2094, 10:29:46,56.625197,195.767637,912.517756,97.475
2095, 10:29:46,56.664457,196.041667,912.409091,97.475
2096, 10:29:46,56.723169,196.437027,914.272727,97.475
2097, 10:29:46,56.755642,196.704901,914.612926,97.475
2098, 10:29:46,56.850537,197.170455,916.380682,97.475
2099, 10:29:46,56.931463,197.531605,917.368608,97.475
2100, 10:29:47,56.998974,197.924953,917.774148,97.475
2101, 10:29:47,57.082465,198.276278,919.109375,97.475
2102, 10:29:47,57.031368,198.292022,918.553267,97.475
2103, 10:29:47,56.738755,197.342211,914.240767,97.475
2104, 10:29:47,56.364662,195.66785,908.390625,97.475
2105, 10:29:47,56.158499,194.459399,905.742188,97.475
2106, 10:29:47,56.05599,193.892874,904.164062,97.475
2107, 10:29:47,56.040009,193.735559,904.177557,97.475
2108, 10:29:47,55.995344,193.491714,903.27983,97.475
2109, 10:29:47,56.022846,193.565223,903.24929,97.475
2110, 10:29:47,56.069681,193.80232,904.819602,97.475
2111, 10:29:47,56.136403,194.063092,905.137074,97.475
2112, 10:29:47,56.18383,194.283026,906.161222,97.475
2113, 10:29:47,56.181581,194.367188,905.913352,97.475
2114, 10:29:47,56.237887,194.556937,907.602983,97.475
2115, 10:29:47,56.292535,194.898438,907.822443,97.475
2116, 10:29:47,56.362492,195.247041,909.283381,97.475
2117, 10:29:47,56.456005,195.637429,910.199574,97.475
2118, 10:29:47,56.512902,196.016927,911.016335,97.475
2119, 10:29:47,56.569721,196.342685,912.232244,97.475
2120, 10:29:47,56.669942,196.781132,914.331676,97.475
2121, 10:29:47,56.720249,197.109138,914.944602,97.475
2122, 10:29:47,56.79727,197.52107,915.711648,97.475
2123, 10:29:47,56.871843,197.855587,916.434659,97.475
2124, 10:29:47,56.93095,198.169271,917.950284,97.475
2125, 10:29:47,57.009549,198.566998,919.634943,97.475
2126, 10:29:47,57.09517,198.973485,920.261364,97.475
2127, 10:29:47,57.157197,199.296402,921.75,97.475
2128, 10:29:47,57.2253,199.667377,922.49858,97.475
2129, 10:29:47,57.079901,199.396425,921.793324,97.475
2130, 10:29:48,56.668916,197.855705,914.358665,97.45
2131, 10:29:48,56.332268,196.277107,909.585938,97.45
2132, 10:29:48,56.20782,195.519295,908.044744,97.45
2133, 10:29:48,56.196378,195.323982,907.736506,97.45
2134, 10:29:48,56.162918,195.224077,907.517756,97.45
2135, 10:29:48,56.16718,195.180043,907.117188,97.45
2136, 10:29:48,56.211095,195.315104,907.950284,97.45
2137, 10:29:48,56.281566,195.526515,908.977273,97.45
2138, 10:29:48,56.292061,195.62571,909.401989,97.45
2139, 10:29:48,56.259983,195.572562,908.537642,97.45
2140, 10:29:48,56.285866,195.664891,909.287642,97.45
2141, 10:29:48,56.312973,195.824337,908.761364,97.45
2142, 10:29:48,56.353101,196.04794,909.540483,97.45
2143, 10:29:48,56.446812,196.350852,910.880682,97.45
2144, 10:29:48,56.5058,196.640507,912.033381,97.45
2145, 10:29:48,56.5814,197.020241,913.041903,97.45
2146, 10:29:48,56.634549,197.363873,914.316761,97.45
2147, 10:29:48,56.704151,197.711884,915.507102,97.45
2148, 10:29:48,56.750868,197.922585,915.899148,97.45
2149, 10:29:48,56.83937,198.252012,917.384233,97.45
2150, 10:29:48,56.877762,198.575521,918.223011,97.45
2151, 10:29:48,56.912997,198.875355,918.928267,97.45
2152, 10:29:48,57.000592,199.280658,920.700994,97.45
2153, 10:29:48,57.047861,199.589134,921.091619,97.45
2154, 10:29:48,56.932686,199.318892,919.805398,97.45
2155, 10:29:48,56.544705,197.810724,913.134233,97.45
2156, 10:29:48,56.206124,196.289299,909.073864,97.45
2157, 10:29:48,56.081282,195.490057,906.758523,97.45
2158, 10:29:48,56.063644,195.299361,907.330256,97.45
2159, 10:29:48,56.052281,195.199455,906.753551,97.45
2160, 10:29:49,56.07485,195.231179,907.21946,97.45
2161, 10:29:49,56.123895,195.398674,907.613636,97.45
2162, 10:29:49,56.18529,195.662405,908.255682,97.45
2163, 10:29:49,56.190538,195.707505,908.889915,97.45
2164, 10:29:49,56.194523,195.715199,908.68892,97.45
2165, 10:29:49,56.205848,195.804569,908.09446,97.45
2166, 10:29:49,56.236427,195.961648,908.803977,97.45
2167, 10:29:49,56.322601,196.238163,909.758523,97.45
2168, 10:29:49,56.367622,196.586766,911.335938,97.45
2169, 10:29:49,56.425308,196.869673,911.692472,97.45
2170, 10:29:49,56.467211,197.249645,912.770597,97.45
2171, 10:29:49,56.531289,197.463187,913.458097,97.45
2172, 10:29:49,56.619673,197.839134,914.827415,97.45
2173, 10:29:49,56.671954,198.105824,915.308239,97.45
2174, 10:29:49,56.744713,198.39465,916.816761,97.45
2175, 10:29:49,56.811711,198.786458,918.798295,97.45
2176, 10:29:49,56.87208,199.105824,919.697443,97.45
2177, 10:29:49,56.958452,199.48331,920.007812,97.45
2178, 10:29:49,57.010693,199.865412,921.698153,97.45
2179, 10:29:49,57.035196,200.065814,922.201705,97.45
2180, 10:29:49,56.757852,199.236151,918.31179,97.45
2181, 10:29:49,56.300505,197.292614,910.735795,97.45
2182, 10:29:49,55.993174,195.664654,907.212358,97.45
2183, 10:29:49,55.855903,194.869792,904.764205,97.45
2184, 10:29:49,55.828717,194.56617,904.414062,97.45
2185, 10:29:49,55.77541,194.216856,902.8125,97.45
2186, 10:29:49,55.743371,194.044981,902.411932,97.45
2187, 10:29:49,55.765546,194.106771,902.771307,97.45
2188, 10:29:49,55.807805,194.236387,903.301847,97.45
2189, 10:29:49,55.822128,194.310133,903.53125,97.45
2190, 10:29:50,55.82631,194.314157,903.84233,97.45
2191, 10:29:50,55.832741,194.36849,903.585938,97.45
2192, 10:29:50,55.866083,194.454309,904.370739,97.45
2193, 10:29:50,55.934896,194.743134,905.609375,97.45
2194, 10:29:50,56.025253,195.058712,906.829545,97.45
2195, 10:29:50,56.077691,195.370384,907.003551,97.45
2196, 10:29:50,56.163155,195.768821,909.300426,97.45
2197, 10:29:50,56.212161,196.052675,909.801847,97.45
2198, 10:29:50,56.300545,196.414891,910.912642,97.45
2199, 10:29:50,56.335346,196.700639,910.973722,97.45
2200, 10:29:50,56.424874,197.082386,912.588068,97.45
2201, 10:29:50,56.451586,197.439986,912.674006,97.45
2202, 10:29:50,56.569168,197.779001,914.784801,97.45
2203, 10:29:50,56.604443,197.978101,915.229403,97.45
2204, 10:29:50,56.69113,198.409091,917.321023,97.45
2205, 10:29:50,56.759706,198.800426,918.296875,97.45
2206, 10:29:50,56.803425,199.044744,918.700284,97.45
2207, 10:29:50,56.73544,198.931226,917.465199,97.45
2208, 10:29:50,56.260022,197.254972,911.410511,97.45
2209, 10:29:50,55.851365,195.29794,904.602983,97.45
2210, 10:29:50,55.635811,193.995502,901.634943,97.45
2211, 10:29:50,55.550466,193.395241,899.504972,97.45
2212, 10:29:50,55.541903,193.159328,899.421875,97.45
2213, 10:29:50,55.504104,192.973485,899.443182,97.45
2214, 10:29:50,55.506037,192.900687,899.904119,97.45
2215, 10:29:50,55.565104,193.022017,899.566761,97.45
2216, 10:29:50,55.602983,193.159328,900.484375,97.45
2217, 10:29:50,55.611308,193.223603,900.674006,97.45
2218, 10:29:50,55.618568,193.257221,900.642756,97.45
2219, 10:29:50,55.637942,193.342803,900.727273,97.45
2220, 10:29:51,55.714134,193.588423,901.982244,97.45
2221, 10:29:51,55.78997,193.893111,902.648438,97.45
2222, 10:29:51,55.874448,194.26018,904.026989,97.45
2223, 10:29:51,55.932134,194.493845,904.5625,97.45
2224, 10:29:51,56.016059,194.826113,906.340199,97.45
2225, 10:29:51,56.075008,195.20277,907.049006,97.45
2226, 10:29:51,56.118213,195.528409,908.284091,97.45
