frame_index,timestamp,R,G,B,average_SpO2
0, 14:07:56,66.220447,189.950166,1005.010653,96.45
1, 14:07:56,65.931345,189.281723,1000.514205,96.45
2, 14:07:56,65.080098,186.084517,988.558239,96.45
3, 14:07:56,64.585267,183.163471,974.40696,96.45
4, 14:07:56,64.475576,181.886955,973.713778,96.45
5, 14:07:56,64.407079,180.925781,973.770597,96.45
6, 14:07:56,64.142874,179.488281,968.120028,96.45
7, 14:07:56,63.828559,177.985677,964.567472,96.45
8, 14:07:56,63.810251,177.478575,962.37429,96.45
9, 14:07:56,64.111585,178.366477,966.909091,96.45
10, 14:07:56,64.379972,179.483665,970.879261,96.45
11, 14:07:56,64.311869,179.434659,970.571023,96.45
12, 14:07:56,64.28342,179.398556,970.147017,96.45
13, 14:07:56,64.396228,179.838305,971.97017,96.45
14, 14:07:56,64.570155,180.661695,974.299716,96.45
15, 14:07:56,64.729167,181.420928,978.076705,96.45
16, 14:07:56,64.83724,182.148082,979.558949,96.45
17, 14:07:56,64.961727,182.841619,982.441761,96.45
18, 14:07:56,65.063526,183.484612,983.359375,96.45
19, 14:07:56,65.143348,184.144058,985.790483,96.45
20, 14:07:56,65.271188,184.833452,987.730824,96.45
21, 14:07:56,65.394847,185.478101,990.260653,96.45
22, 14:07:56,65.498185,186.222775,991.93892,96.45
23, 14:07:56,65.589528,186.949929,993.759233,96.45
24, 14:07:56,65.767519,187.763731,996.465909,96.45
25, 14:07:56,65.903646,188.533854,1000.370739,96.45
26, 14:07:56,66.035432,189.340672,1002.359375,96.45
27, 14:07:56,66.133325,190.025923,1004.922585,96.45
28, 14:07:56,66.254301,190.696615,1006.665483,96.45
29, 14:07:56,66.387468,191.419034,1009.386364,96.45
30, 14:07:57,66.259036,191.180043,1005.483665,96.45
31, 14:07:57,66.332071,191.768466,1006.213068,96.45
32, 14:07:57,66.463542,192.414773,1009.076705,96.45
33, 14:07:57,66.605903,193.072443,1011.764205,96.45
34, 14:07:57,66.723879,193.685843,1013.549716,96.45
35, 14:07:57,66.889717,194.50438,1016.503551,96.45
36, 14:07:57,66.994792,195.289299,1018.403409,96.45
37, 14:07:57,67.003788,195.537879,1019.536932,96.45
38, 14:07:57,66.203559,193.027344,1007.638494,96.45
39, 14:07:57,65.224984,188.48035,992.700284,96.45
40, 14:07:57,64.822364,186.009706,983.731534,96.45
41, 14:07:57,64.804096,185.117306,983.286222,96.45
42, 14:07:57,64.563013,183.780895,977.696733,96.45
43, 14:07:57,64.173374,181.716619,972.745739,96.45
44, 14:07:57,63.868924,179.936316,965.887784,96.45
45, 14:07:57,63.848879,179.17732,964.794034,96.45
46, 14:07:57,64.169271,180.174006,969.21733,96.45
47, 14:07:57,64.332505,180.852154,971.868608,96.45
48, 14:07:57,64.180516,180.576586,970.382812,96.45
49, 14:07:57,64.18462,180.459635,969.743608,96.45
50, 14:07:57,64.338581,180.839134,972.350142,96.45
51, 14:07:57,64.439473,181.508286,974.203125,96.45
52, 14:07:57,64.570036,182.172704,975.541903,96.45
53, 14:07:57,64.689591,182.888849,978.977983,96.45
54, 14:07:57,64.798414,183.414181,979.760653,96.45
55, 14:07:57,64.934975,184.057765,982.136364,96.45
56, 14:07:57,65.016059,184.739938,983.945312,96.45
57, 14:07:57,65.171046,185.338897,986.877131,96.45
58, 14:07:57,65.285432,186.013494,988.296875,96.45
59, 14:07:57,65.380879,186.74349,991.56321,96.45
60, 14:07:58,65.529593,187.56179,992.799716,96.45
61, 14:07:58,65.666903,188.273911,995.714489,96.45
62, 14:07:58,65.761916,189.078835,997.143466,96.45
63, 14:07:58,65.931976,189.816761,1000.582386,96.45
64, 14:07:58,66.019334,190.362926,1002.046875,96.45
65, 14:07:58,66.128117,190.976207,1004.425426,96.45
66, 14:07:58,66.293127,191.74633,1006.983665,96.45
67, 14:07:58,66.47747,192.59813,1009.316051,96.45
68, 14:07:58,66.603062,193.287879,1011.548295,96.45
69, 14:07:58,66.642677,193.839962,1013.829545,96.45
70, 14:07:58,66.084359,192.09304,1005.546875,96.45
71, 14:07:58,65.23398,188.382812,992.46733,96.45
72, 14:07:58,64.874487,186.226681,985.431108,96.45
73, 14:07:58,64.820036,185.378196,983.610085,96.45
74, 14:07:58,64.709872,184.563802,980.726562,96.45
75, 14:07:58,64.45423,183.166193,976.767045,96.45
76, 14:07:58,64.261758,182.066998,973.15483,96.45
77, 14:07:58,64.341817,181.928859,974.314631,96.45
78, 14:07:58,64.704545,183.129735,979.3125,96.45
79, 14:07:58,64.737966,183.48331,980.240767,96.45
80, 14:07:58,64.601207,183.120857,977.71946,96.45
81, 14:07:58,64.634983,183.20277,978.668324,96.45
82, 14:07:58,64.76452,183.618845,980.369318,96.45
83, 14:07:58,64.915522,184.280185,983.53054,96.45
84, 14:07:58,65.03926,184.914181,984.976562,96.45
85, 14:07:58,65.178859,185.613755,986.864347,96.45
86, 14:07:58,65.291233,186.235914,989.259233,96.45
87, 14:07:58,65.369318,186.84517,991.502841,96.45
88, 14:07:58,65.440025,187.35322,992.821023,96.45
89, 14:07:58,65.552004,187.945786,994.291193,96.45
90, 14:07:59,65.685054,188.654593,996.515625,96.725
91, 14:07:59,65.79218,189.314039,999.012074,96.725
92, 14:07:59,65.935448,190.058239,1000.946023,96.725
93, 14:07:59,66.048808,190.812145,1002.915483,96.725
94, 14:07:59,66.196851,191.359493,1006.267756,96.725
95, 14:07:59,66.305871,191.958333,1007.806818,96.725
96, 14:07:59,66.40191,192.552794,1009.620739,96.725
97, 14:07:59,66.560014,193.262902,1012.162642,96.725
98, 14:07:59,66.70423,193.973485,1014.264205,96.725
99, 14:07:59,66.771386,194.55232,1016.410511,96.725
100, 14:07:59,66.765073,194.806581,1017.06392,96.725
101, 14:07:59,66.101562,192.470407,1007.390625,96.725
102, 14:07:59,65.304569,188.828954,993.976562,96.725
103, 14:07:59,65.00947,186.778883,988.556818,96.725
104, 14:07:59,64.996291,186.048532,986.81392,96.725
105, 14:07:59,64.816406,184.948272,983.536222,96.725
106, 14:07:59,64.560448,183.439394,978.491477,96.725
107, 14:07:59,64.368884,182.323509,975.992188,96.725
108, 14:07:59,64.545415,182.638613,977.587358,96.725
109, 14:07:59,64.82485,183.615649,982.333097,96.725
110, 14:07:59,64.705492,183.423295,980.193182,96.725
111, 14:07:59,64.628157,183.12358,979.289773,96.725
112, 14:07:59,64.709675,183.28054,979.901989,96.725
113, 14:07:59,64.831755,183.724432,982.414773,96.725
114, 14:07:59,64.983783,184.367069,984.401278,96.725
115, 14:07:59,65.092803,184.941761,986.170455,96.725
116, 14:07:59,65.18967,185.499882,988.024858,96.725
117, 14:07:59,65.281881,186.085701,990.829545,96.725
118, 14:07:59,65.379656,186.566051,991.336648,96.725
119, 14:07:59,65.4942,187.085346,993.074574,96.725
120, 14:08:00,65.585069,187.633049,995.03125,96.725
121, 14:08:00,65.685843,188.180634,997.65767,96.725
122, 14:08:00,65.812461,188.873461,998.931108,96.725
123, 14:08:00,65.98911,189.608428,1002.659091,96.725
124, 14:08:00,66.119279,190.469105,1003.931108,96.725
125, 14:08:00,66.237729,190.951349,1006.495028,96.725
126, 14:08:00,66.197719,190.957741,1006.237926,96.725
127, 14:08:00,65.517085,188.348603,995.861506,96.725
128, 14:08:00,64.805279,184.663471,984.182528,96.725
129, 14:08:00,64.518032,182.812618,978.25071,96.725
130, 14:08:00,64.477075,181.958215,976.050426,96.725
131, 14:08:00,64.275016,180.573627,971.586648,96.725
132, 14:08:00,63.984493,178.944957,966.766335,96.725
133, 14:08:00,63.875316,177.961648,964.196023,96.725
134, 14:08:00,64.086372,178.559777,966.676847,96.725
135, 14:08:00,64.396228,179.751184,972.413352,96.725
136, 14:08:00,64.389402,179.779001,971.227983,96.725
137, 14:08:00,64.324219,179.591027,971.460938,96.725
138, 14:08:00,64.423808,179.883168,972.514915,96.725
139, 14:08:00,64.605193,180.608665,975.518466,96.725
140, 14:08:00,64.774818,181.398793,978.105824,96.725
141, 14:08:00,64.928385,182.195668,981.455256,96.725
142, 14:08:00,65.065459,182.896188,982.882812,96.725
143, 14:08:00,65.177754,183.585819,985.642756,96.725
144, 14:08:00,65.288668,184.25142,987.400568,96.725
145, 14:08:00,65.451389,184.941288,989.59375,96.725
146, 14:08:00,65.620265,185.681345,992.451705,96.725
147, 14:08:00,65.749132,186.415483,994.944602,96.725
148, 14:08:00,65.901318,187.21437,996.56179,96.725
149, 14:08:00,66.0494,187.987689,999.784091,96.725
150, 14:08:01,66.223722,188.822206,1002.606534,96.725
151, 14:08:01,66.376736,189.785985,1005.860795,96.725
152, 14:08:01,66.547901,190.499763,1008.348011,96.725
153, 14:08:01,66.670612,191.268939,1010.653409,96.725
154, 14:08:01,66.830966,192.10464,1013.088068,96.725
155, 14:08:01,67.01819,193.003433,1016.193892,96.725
156, 14:08:01,67.183357,193.856889,1018.857244,96.725
157, 14:08:01,67.163076,193.91063,1019.00071,96.725
158, 14:08:01,66.462634,191.324455,1008.074574,96.725
159, 14:08:01,65.709793,187.41205,996.520597,96.725
160, 14:08:01,65.547625,185.580374,990.754972,96.725
161, 14:08:01,65.567985,185.082741,990.985085,96.725
162, 14:08:01,65.426136,183.795455,986.036932,96.725
163, 14:08:01,65.14678,182.178504,981.431818,96.725
164, 14:08:01,64.981534,181.005682,977.426136,96.725
165, 14:08:01,65.08428,181.094223,979.286932,96.725
166, 14:08:01,65.478338,182.509351,984.121449,96.725
167, 14:08:01,65.603338,183.061908,986.524858,96.725
168, 14:08:01,65.564591,182.975971,985.233665,96.725
169, 14:08:01,65.654869,183.231652,986.591619,96.725
170, 14:08:01,65.849747,184.035038,989.372159,96.725
171, 14:08:01,66.08361,184.891454,992.985085,96.725
172, 14:08:01,66.263652,185.825047,995.31392,96.725
173, 14:08:01,66.442393,186.693182,999.076705,96.725
174, 14:08:01,66.566919,187.458333,1000.392045,96.725
175, 14:08:01,66.699337,188.222064,1003.832386,96.725
176, 14:08:01,66.883168,189.038707,1005.394176,96.725
177, 14:08:01,67.063171,189.903527,1008.492188,96.725
178, 14:08:01,67.219658,190.706795,1011.257812,96.725
179, 14:08:01,67.398793,191.524976,1014.877131,96.725
180, 14:08:02,67.558949,192.375237,1016.924716,96.725
181, 14:08:02,67.730153,193.295099,1020.495028,96.725
182, 14:08:02,67.917456,194.190341,1022.951705,96.725
183, 14:08:02,68.035551,195.020952,1025.591619,96.725
184, 14:08:02,68.172506,195.941288,1027.599432,96.725
185, 14:08:02,68.369397,196.954309,1032.353693,96.725
186, 14:08:02,68.515546,197.825994,1033.464489,96.725
187, 14:08:02,68.662287,198.518111,1037.040483,96.725
188, 14:08:02,68.449179,198.048769,1034.465909,96.725
189, 14:08:02,67.772293,195.381747,1024.495028,96.725
190, 14:08:02,67.48035,193.299479,1018.12358,96.725
191, 14:08:02,67.526555,192.851444,1017.705256,96.725
192, 14:08:02,67.522885,192.462595,1016.227273,96.725
193, 14:08:02,67.30962,191.413234,1012.854403,96.725
194, 14:08:02,67.175308,190.398082,1008.774858,96.725
195, 14:08:02,67.209793,190.097183,1008.929688,96.725
196, 14:08:02,67.454743,190.951823,1012.424006,96.725
197, 14:08:02,67.659722,191.903883,1015.568182,96.725
198, 14:08:02,67.638415,191.980587,1014.954545,96.725
199, 14:08:02,67.630879,191.914418,1015.722301,96.725
200, 14:08:02,67.737137,192.441525,1016.697443,96.725
201, 14:08:02,67.907039,193.068655,1019.934659,96.725
202, 14:08:02,68.049164,193.742661,1022.524148,96.725
203, 14:08:02,68.152383,194.505445,1023.745739,96.725
204, 14:08:02,68.264796,195.139086,1026.013494,96.725
205, 14:08:02,68.389796,195.794389,1028.365767,96.725
206, 14:08:02,68.483862,196.418916,1029.871449,96.725
207, 14:08:02,68.596551,197.049598,1032.681108,96.725
208, 14:08:02,68.700481,197.731179,1034.821733,96.725
209, 14:08:02,68.838857,198.46875,1036.755682,96.725
210, 14:08:03,68.977667,199.173532,1038.643466,96.95
211, 14:08:03,69.057923,199.858428,1041.411932,96.95
212, 14:08:03,69.216974,200.57848,1043.075994,96.95
213, 14:08:03,69.36261,201.274384,1046.12642,96.95
214, 14:08:03,69.483467,201.995384,1048.134233,96.95
215, 14:08:03,69.623895,202.677557,1050.681818,96.95
216, 14:08:03,69.627801,202.956321,1051.004972,96.95
217, 14:08:03,69.077612,201.232836,1044.007812,96.95
218, 14:08:03,68.525213,198.499408,1034.584517,96.95
219, 14:08:03,68.383483,197.243253,1030.450994,96.95
220, 14:08:03,68.454861,196.966383,1030.977273,96.95
221, 14:08:03,68.405421,196.351207,1028.973722,96.95
222, 14:08:03,68.232599,195.219105,1023.990767,96.95
223, 14:08:03,68.161892,194.577533,1023.794744,96.95
224, 14:08:03,68.39461,195.230705,1027.023438,96.95
225, 14:08:03,68.535945,195.872041,1029.308949,96.95
226, 14:08:03,68.440972,195.608428,1027.451705,96.95
227, 14:08:03,68.386837,195.374527,1027.411932,96.95
228, 14:08:03,68.451113,195.554096,1027.583097,96.95
229, 14:08:03,68.541312,196.008878,1029.200994,96.95
230, 14:08:03,68.64244,196.473248,1030.651989,96.95
231, 14:08:03,68.707347,196.98473,1032.408381,96.95
232, 14:08:03,68.831321,197.704664,1034.992188,96.95
233, 14:08:03,68.872988,198.145005,1036.577415,96.95
234, 14:08:03,68.942432,198.533262,1037.608665,96.95
235, 14:08:03,69.015783,199.007102,1038.784091,96.95
236, 14:08:03,69.104995,199.448982,1040.193892,96.95
237, 14:08:03,69.195589,199.97313,1042.227983,96.95
238, 14:08:03,69.309856,200.587713,1044.117188,96.95
239, 14:08:03,69.417495,201.214134,1045.870028,96.95
240, 14:08:04,69.512863,201.779119,1047.163352,96.95
241, 14:08:04,69.572917,202.176136,1049.125,96.95
242, 14:08:04,69.493134,202.072206,1048.399148,96.95
243, 14:08:04,68.820983,199.493726,1038.769176,96.95
244, 14:08:04,68.254538,196.565223,1028.558949,96.95
245, 14:08:04,68.129893,195.235322,1026.272727,96.95
246, 14:08:04,68.098564,194.701941,1024.444602,96.95
247, 14:08:04,67.908775,193.569602,1021.701705,96.95
248, 14:08:04,67.634036,192.095289,1015.614347,96.95
249, 14:08:04,67.545297,191.405303,1013.528409,96.95
250, 14:08:04,67.781802,192.113873,1017.044034,96.95
251, 14:08:04,67.911537,192.755445,1020.132102,96.95
252, 14:08:04,67.771544,192.326468,1017.504261,96.95
253, 14:08:04,67.694444,192.117424,1016.536932,96.95
254, 14:08:04,67.775134,192.375118,1017.787642,96.95
255, 14:08:04,67.925781,193.033973,1021.129972,96.95
256, 14:08:04,68.018939,193.629735,1022.227273,96.95
257, 14:08:04,68.121567,194.091027,1024.818892,96.95
258, 14:08:04,68.192116,194.570668,1025.648438,96.95
259, 14:08:04,68.269965,195.084517,1027.669034,96.95
260, 14:08:04,68.325363,195.562263,1028.495739,96.95
261, 14:08:04,68.445076,196.151515,1030.911932,96.95
262, 14:08:04,68.533381,196.758286,1032.026989,96.95
263, 14:08:04,68.631826,197.392164,1034.730824,96.95
264, 14:08:04,68.72964,197.946496,1035.494318,96.95
265, 14:08:04,68.805122,198.581558,1038.284801,96.95
266, 14:08:04,68.931503,199.18892,1039.352273,96.95
267, 14:08:04,69.052754,199.882221,1042.242188,96.95
268, 14:08:04,69.19113,200.591383,1044.545455,96.95
269, 14:08:04,69.286537,201.200994,1046.745739,96.95
270, 14:08:05,69.257773,201.317827,1045.773438,96.7
271, 14:08:05,68.591501,198.943537,1037.033381,96.7
272, 14:08:05,67.777423,195.165601,1024.729403,96.7
273, 14:08:05,67.522767,193.226918,1019.034801,96.7
274, 14:08:05,67.452494,192.383523,1016.636364,96.7
275, 14:08:05,67.238321,191.1875,1012.477273,96.7
276, 14:08:05,66.906684,189.310014,1006.507812,96.7
277, 14:08:05,66.682134,187.797822,1002.329545,96.7
278, 14:08:05,66.757023,187.648911,1001.93608,96.7
279, 14:08:05,67.030777,188.799242,1005.875,96.7
280, 14:08:05,67.091501,189.226207,1007.774858,96.7
281, 14:08:05,67.000829,188.951823,1006.554688,96.7
282, 14:08:05,67.015822,188.964134,1006.705256,96.7
283, 14:08:05,67.146267,189.578954,1009.942472,96.7
284, 14:08:05,67.272372,190.233783,1011.948153,96.7
285, 14:08:05,67.396307,190.907197,1014.190341,96.7
286, 14:08:05,67.525647,191.630919,1016.643466,96.7
287, 14:08:05,67.631787,192.136364,1018.78125,96.7
288, 14:08:05,67.742779,192.784209,1019.975142,96.7
289, 14:08:05,67.840515,193.319366,1022.71733,96.7
290, 14:08:05,67.950284,193.958333,1024.102273,96.7
291, 14:08:05,68.069563,194.588423,1026.482244,96.7
292, 14:08:05,68.152857,195.284328,1028.259943,96.7
293, 14:08:05,68.27908,196.075876,1030.477983,96.7
294, 14:08:05,68.404119,196.856297,1032.975852,96.7
295, 14:08:05,68.528606,197.387902,1035.114347,96.7
296, 14:08:05,68.577257,197.978456,1036.544034,96.7
297, 14:08:05,68.717487,198.630682,1038.789773,96.7
298, 14:08:05,68.869713,199.496922,1041.163352,96.7
299, 14:08:05,69.03922,200.250237,1043.887784,96.7
300, 14:08:06,69.128196,200.87938,1045.460938,96.7
301, 14:08:06,69.031921,200.798414,1044.864347,96.7
302, 14:08:06,68.208333,197.689394,1032.321023,96.7
303, 14:08:06,67.34667,193.828362,1020.169034,96.7
304, 14:08:06,67.148438,191.977036,1014.066761,96.7
305, 14:08:06,67.082584,191.272846,1013.108665,96.7
306, 14:08:06,66.846591,189.981534,1008.448864,96.7
307, 14:08:06,66.53271,188.145478,1002.378551,96.7
308, 14:08:06,66.371488,186.938802,999.127131,96.7
309, 14:08:06,66.535314,187.349313,1000.990767,96.7
310, 14:08:06,66.855311,188.656368,1005.253551,96.7
311, 14:08:06,66.869358,188.947088,1006.861506,96.7
312, 14:08:06,66.802912,188.756274,1005.523438,96.7
313, 14:08:06,66.860006,188.95928,1006.235795,96.7
314, 14:08:06,67.009628,189.556818,1009.420455,96.7
315, 14:08:06,67.183909,190.295099,1012.171165,96.7
316, 14:08:06,67.329072,191.128788,1014.46875,96.7
317, 14:08:06,67.445431,191.742543,1016.057528,96.7
318, 14:08:06,67.555043,192.396662,1017.732244,96.7
319, 14:08:06,67.668718,192.995265,1019.940341,96.7
320, 14:08:06,67.753748,193.568537,1021.178267,96.7
321, 14:08:06,67.878196,194.315459,1025.333097,96.7
322, 14:08:06,67.998619,195.052675,1026.921165,96.7
323, 14:08:06,68.126223,195.842211,1029.189631,96.7
324, 14:08:06,68.241122,196.673651,1031.476562,96.7
325, 14:08:06,68.413273,197.440104,1034.799716,96.7
326, 14:08:06,68.521544,198.086411,1036.512784,96.7
327, 14:08:06,68.657631,198.756984,1039.022017,96.7
328, 14:08:06,68.744397,199.423532,1040.339489,96.7
329, 14:08:06,68.895044,200.139205,1043.048295,96.7
330, 14:08:07,69.062421,200.972775,1045.617898,96.9
331, 14:08:07,69.17732,201.65554,1047.947443,96.9
332, 14:08:07,69.188171,202.141217,1049.145597,96.9
333, 14:08:07,68.550347,199.940341,1040.315341,96.9
334, 14:08:07,67.564039,195.490412,1023.979403,96.9
335, 14:08:07,67.126105,192.956913,1017.122159,96.9
336, 14:08:07,67.130366,192.278409,1014.900568,96.9
337, 14:08:07,67.038431,191.46946,1012.646307,96.9
338, 14:08:07,66.744042,189.957031,1007.628551,96.9
339, 14:08:07,66.568419,188.716619,1004.166193,96.9
340, 14:08:07,66.715199,189.005919,1006.15767,96.9
341, 14:08:07,67.021228,190.249763,1010.507102,96.9
342, 14:08:07,67.010101,190.309186,1010.389205,96.9
343, 14:08:07,66.909051,189.926491,1009.308949,96.9
344, 14:08:07,66.954822,189.998461,1009.24929,96.9
345, 14:08:07,67.091974,190.557647,1011.522017,96.9
346, 14:08:07,67.23331,191.274266,1013.895597,96.9
347, 14:08:07,67.408065,192.055161,1017.049716,96.9
348, 14:08:07,67.570194,192.912287,1019.672585,96.9
349, 14:08:07,67.691367,193.506866,1021.566761,96.9
350, 14:08:07,67.764915,194.137547,1022.606534,96.9
351, 14:08:07,67.849037,194.651278,1025.066761,96.9
352, 14:08:07,67.963976,195.300545,1026.456676,96.9
353, 14:08:07,68.079348,195.950166,1029.127131,96.9
354, 14:08:07,68.227786,196.616596,1031.523438,96.9
355, 14:08:07,68.35535,197.352509,1034.166193,96.9
356, 14:08:07,68.53125,198.202178,1036.857955,96.9
357, 14:08:07,68.659762,198.89974,1038.943892,96.9
358, 14:08:07,68.786064,199.506866,1040.37642,96.9
359, 14:08:07,68.685646,199.424361,1039.972301,96.9
360, 14:08:08,67.847538,196.413352,1028.34375,96.9
361, 14:08:08,67.011877,192.482126,1016.083097,96.9
362, 14:08:08,66.823627,190.516809,1009.40767,96.9
363, 14:08:08,66.812618,190.091264,1008.766335,96.9
364, 14:08:08,66.624329,189.043916,1005.007812,96.9
365, 14:08:08,66.392361,187.649621,1000.951705,96.9
366, 14:08:08,66.299242,186.827652,997.940341,96.9
367, 14:08:08,66.619358,187.800308,1002.898438,96.9
368, 14:08:08,66.847301,188.925426,1006.245739,96.9
369, 14:08:08,66.790404,188.698864,1005.786932,96.9
370, 14:08:08,66.727943,188.573035,1004.838778,96.9
371, 14:08:08,66.832623,188.903646,1006.18608,96.9
372, 14:08:08,67.024582,189.752723,1008.627131,96.9
373, 14:08:08,67.216185,190.710582,1013.101562,96.9
374, 14:08:08,67.360283,191.4942,1014.678267,96.9
375, 14:08:08,67.501657,192.190578,1017.132102,96.9
376, 14:08:08,67.612768,192.763494,1019.390625,96.9
377, 14:08:08,67.748264,193.482481,1021.389205,96.9
378, 14:08:08,67.84884,194.14974,1023.634233,96.9
379, 14:08:08,67.973603,194.891927,1026.266335,96.9
380, 14:08:08,68.086174,195.630208,1028.323864,96.9
381, 14:08:08,68.225892,196.476444,1031.253551,96.9
382, 14:08:08,68.39611,197.245147,1033.857244,96.9
383, 14:08:08,68.465751,197.811553,1035.369318,96.9
384, 14:08:08,68.60535,198.573627,1037.299716,96.9
385, 14:08:08,68.78492,199.439986,1040.398438,96.9
386, 14:08:08,68.960701,200.314867,1043.360795,96.9
387, 14:08:08,69.059738,200.851562,1045.115057,96.9
388, 14:08:08,68.576507,199.429332,1038.635653,96.9
389, 14:08:08,67.443024,194.739583,1022.056818,96.9
390, 14:08:09,66.809817,191.221117,1010.571023,96.9
391, 14:08:09,66.743056,190.059186,1008.042614,96.9
392, 14:08:09,66.621528,189.224432,1005.497159,96.9
393, 14:08:09,66.337397,187.583688,999.732244,96.9
394, 14:08:09,66.034328,185.794271,993.674716,96.9
395, 14:08:09,65.973051,185.100971,993.338778,96.9
396, 14:08:09,66.351602,186.218158,997.760653,96.9
397, 14:08:09,66.580295,187.334162,1002.391335,96.9
398, 14:08:09,66.531408,187.285038,1000.6875,96.9
399, 14:08:09,66.511798,187.303859,1001.229403,96.9
400, 14:08:09,66.620857,187.723366,1002.476562,96.9
401, 14:08:09,66.834399,188.592685,1005.692472,96.9
402, 14:08:09,67.010535,189.539654,1008.581676,96.9
403, 14:08:09,67.158657,190.376539,1011.588778,96.9
404, 14:08:09,67.288313,191.057173,1013.791903,96.9
405, 14:08:09,67.386048,191.757102,1015.471591,96.9
406, 14:08:09,67.550663,192.401042,1018.133523,96.9
407, 14:08:09,67.674598,193.164891,1021.290483,96.9
408, 14:08:09,67.815183,193.887784,1023.150568,96.9
409, 14:08:09,67.970486,194.772254,1026.053977,96.9
410, 14:08:09,68.110361,195.673414,1029.043324,96.9
411, 14:08:09,68.24858,196.478693,1031.150568,96.9
412, 14:08:09,68.385417,197.327178,1033.815341,96.9
413, 14:08:09,68.535511,198.109848,1037.588068,96.9
414, 14:08:09,68.725063,198.956439,1039.46875,96.9
415, 14:08:09,68.900371,199.924124,1042.431108,96.9
416, 14:08:09,68.983112,200.487689,1045.045455,96.9
417, 14:08:09,68.469381,198.851799,1038.011364,96.9
418, 14:08:09,67.313289,194.144886,1020.352273,96.9
419, 14:08:09,66.723051,190.614702,1009.804688,96.9
420, 14:08:10,66.658026,189.558357,1006.264915,96.925
421, 14:08:10,66.529869,188.71366,1003.915483,96.925
422, 14:08:10,66.252249,187.018111,998.730824,96.925
423, 14:08:10,65.957347,185.318537,993.110085,96.925
424, 14:08:10,65.938842,184.880445,991.549716,96.925
425, 14:08:10,66.307173,185.986861,997.784801,96.925
426, 14:08:10,66.564197,187.189276,1000.666903,96.925
427, 14:08:10,66.523161,187.137666,1000.43679,96.925
428, 14:08:10,66.529948,187.148556,999.888494,96.925
429, 14:08:10,66.662169,187.7384,1003.163352,96.925
430, 14:08:10,66.879616,188.576823,1006.372869,96.925
431, 14:08:10,67.046993,189.589844,1008.868608,96.925
432, 14:08:10,67.216422,190.411577,1011.537642,96.925
433, 14:08:10,67.365728,191.153527,1014.324574,96.925
434, 14:08:10,67.451626,191.968513,1015.549716,96.925
435, 14:08:10,67.591146,192.631392,1018.785511,96.925
436, 14:08:10,67.7616,193.40554,1021.31392,96.925
437, 14:08:10,67.888494,194.185843,1023.890625,96.925
438, 14:08:10,68.026318,194.944957,1026.002131,96.925
439, 14:08:10,68.176768,195.863636,1029.696023,96.925
440, 14:08:10,68.315735,196.776752,1032.265625,96.925
441, 14:08:10,68.473288,197.594105,1035.419744,96.925
442, 14:08:10,68.610046,198.284209,1037.108665,96.925
443, 14:08:10,68.765743,199.185488,1040.328835,96.925
444, 14:08:10,68.945194,200.053385,1043.283381,96.925
445, 14:08:10,69.066288,200.985795,1045.914773,96.925
446, 14:08:10,69.184738,201.715199,1047.646307,96.925
447, 14:08:10,68.960819,201.312855,1044.820312,96.925
448, 14:08:10,67.903172,197.238873,1029.430398,96.925
449, 14:08:10,67.036103,192.976681,1015.365767,96.925
450, 14:08:11,66.872475,191.450284,1010.329545,96.925
451, 14:08:11,66.898122,191.112926,1010.427557,96.925
452, 14:08:11,66.701231,189.953598,1006.536932,96.925
453, 14:08:11,66.412918,188.26527,1000.892756,96.925
454, 14:08:11,66.349747,187.579072,999.426136,96.925
455, 14:08:11,66.690301,188.678385,1004.317472,96.925
456, 14:08:11,66.895794,189.467211,1007.24929,96.925
457, 14:08:11,66.776357,189.22017,1005.625,96.925
458, 14:08:11,66.72459,189.02983,1004.582386,96.925
459, 14:08:11,66.832741,189.322088,1006.56321,96.925
460, 14:08:11,67.03417,190.129025,1009.759943,96.925
461, 14:08:11,67.178188,190.881629,1012.710227,96.925
462, 14:08:11,67.338621,191.69768,1014.271307,96.925
463, 14:08:11,67.485243,192.499763,1018.18608,96.925
464, 14:08:11,67.588621,193.143229,1019.009943,96.925
465, 14:08:11,67.63372,193.653527,1020.793324,96.925
466, 14:08:11,67.748422,194.193182,1022.670455,96.925
467, 14:08:11,67.853101,194.911577,1025.134233,96.925
468, 14:08:11,67.975024,195.554332,1027.047585,96.925
469, 14:08:11,68.147846,196.51456,1030.246449,96.925
470, 14:08:11,68.316091,197.342211,1032.402699,96.925
471, 14:08:11,68.467369,198.102391,1035.989347,96.925
472, 14:08:11,68.583965,198.675189,1037.053977,96.925
473, 14:08:11,68.424598,198.43099,1035.747869,96.925
474, 14:08:11,67.457505,194.935014,1021.067472,96.925
475, 14:08:11,66.647057,190.833688,1008.019176,96.925
476, 14:08:11,66.437263,189.127131,1001.975852,96.925
477, 14:08:11,66.435054,188.683949,1001.481534,96.925
478, 14:08:11,66.287721,187.659564,997.744318,96.925
479, 14:08:11,66.023832,186.262784,993.588068,96.925
480, 14:08:12,66.046086,185.780303,992.59375,96.95
481, 14:08:12,66.399227,187.018229,998.72017,96.95
482, 14:08:12,66.540404,187.706439,1000.428977,96.95
483, 14:08:12,66.441525,187.397491,998.961648,96.95
484, 14:08:12,66.441012,187.292732,998.824574,96.95
485, 14:08:12,66.538944,187.715791,1000.945312,96.95
486, 14:08:12,66.773438,188.633286,1004.328125,96.95
487, 14:08:12,66.948824,189.536813,1007.485085,96.95
488, 14:08:12,67.113163,190.405777,1009.744318,96.95
489, 14:08:12,67.223366,190.993016,1012.014915,96.95
490, 14:08:12,67.34083,191.590672,1014.15767,96.95
491, 14:08:12,67.428267,192.267756,1016.09517,96.95
492, 14:08:12,67.541193,192.943182,1017.576705,96.95
493, 14:08:12,67.648438,193.590672,1020.225852,96.95
494, 14:08:12,67.788628,194.394295,1022.638494,96.95
495, 14:08:12,67.929806,195.123698,1025.205256,96.95
496, 14:08:12,68.019886,196.02178,1026.232955,96.95
497, 14:08:12,68.180911,196.714607,1029.904119,96.95
498, 14:08:12,68.300032,197.366951,1032.346591,96.95
499, 14:08:12,68.458688,198.16063,1034.841619,96.95
500, 14:08:12,68.627407,198.967448,1037.088778,96.95
501, 14:08:12,68.727746,199.669508,1039.991477,96.95
502, 14:08:12,68.472498,199.115885,1036.141335,96.95
503, 14:08:12,67.307568,194.810488,1020.351562,96.95
504, 14:08:12,66.409367,190.21295,1004.345881,96.95
505, 14:08:12,66.197206,188.299006,998.839489,96.95
506, 14:08:12,66.151515,187.551136,996.488636,96.95
507, 14:08:12,65.910945,186.064749,992.007812,96.95
508, 14:08:12,65.568616,184.038707,985.087358,96.95
509, 14:08:12,65.368174,182.632457,981.419744,96.95
510, 14:08:13,65.538628,183.049124,983.43679,96.975
511, 14:08:13,65.900568,184.301136,989.71875,96.975
512, 14:08:13,65.890704,184.411222,989.06392,96.975
513, 14:08:13,65.815065,184.088187,988.088778,96.975
514, 14:08:13,65.864978,184.278646,987.424716,96.975
515, 14:08:13,66.053741,184.959991,991.708807,96.975
516, 14:08:13,66.246291,185.831203,993.31108,96.975
517, 14:08:13,66.425347,186.612216,996.997159,96.975
518, 14:08:13,66.523319,187.361151,998.78054,96.975
519, 14:08:13,66.595683,187.935724,1001.154119,96.975
520, 14:08:13,66.700008,188.552675,1001.773438,96.975
521, 14:08:13,66.87279,189.36553,1005.372159,96.975
522, 14:08:13,67.023043,190.098958,1008.625,96.975
523, 14:08:13,67.129656,190.795218,1010.330966,96.975
524, 14:08:13,67.299321,191.622869,1012.37642,96.975
525, 14:08:13,67.420533,192.423532,1015.691761,96.975
526, 14:08:13,67.549598,193.214607,1018.014915,96.975
527, 14:08:13,67.637311,193.856534,1019.803977,96.975
528, 14:08:13,67.775568,194.736742,1022.346591,96.975
529, 14:08:13,67.980429,195.696496,1026.0625,96.975
530, 14:08:13,68.139007,196.56759,1028.683949,96.975
531, 14:08:13,68.174479,196.981771,1030.026989,96.975
532, 14:08:13,67.562973,195.131155,1020.758523,96.975
533, 14:08:13,66.519216,190.568063,1005.496449,96.975
534, 14:08:13,66.014441,187.621449,994.93892,96.975
535, 14:08:13,66.015388,186.727509,993.524148,96.975
536, 14:08:13,65.936829,185.851681,990.303267,96.975
537, 14:08:13,65.655579,184.132457,984.632812,96.975
538, 14:08:13,65.373501,182.514441,978.762784,96.975
539, 14:08:13,65.388652,182.070312,979.40483,96.975
540, 14:08:14,65.718671,183.150331,984.481534,96.975
541, 14:08:14,65.917929,184.030303,987.409091,96.975
542, 14:08:14,65.841304,183.843987,985.867898,96.975
543, 14:08:14,65.828598,183.731534,986.286932,96.975
544, 14:08:14,65.939433,184.200402,987.96946,96.975
545, 14:08:14,66.142085,185.009588,991.049006,96.975
546, 14:08:14,66.338857,185.903883,992.673295,96.975
547, 14:08:14,66.476444,186.638613,995.649858,96.975
548, 14:08:14,66.563486,187.353338,997.415483,96.975
549, 14:08:14,66.706163,188.019058,999.628551,96.975
550, 14:08:14,66.822601,188.75142,1002.227273,96.975
551, 14:08:14,66.965554,189.452533,1005.604403,96.975
552, 14:08:14,67.098879,190.235559,1006.978693,96.975
553, 14:08:14,67.232323,190.992898,1009.298295,96.975
554, 14:08:14,67.379853,191.735677,1012.507812,96.975
555, 14:08:14,67.524463,192.580019,1015.400568,96.975
556, 14:08:14,67.641217,193.331321,1017.703835,96.975
557, 14:08:14,67.751223,194.143821,1020.002131,96.975
558, 14:08:14,67.870107,194.933712,1021.997159,96.975
559, 14:08:14,67.958728,195.651752,1025.058239,96.975
560, 14:08:14,68.118726,196.433357,1026.793324,96.975
561, 14:08:14,68.268584,197.165128,1030.152699,96.975
562, 14:08:14,68.426452,197.997159,1032.909091,96.975
563, 14:08:14,68.508128,198.672112,1034.546875,96.975
564, 14:08:14,68.381708,198.602509,1033.728693,96.975
565, 14:08:14,67.360717,195.039062,1019.46733,96.975
566, 14:08:14,66.591027,191.31617,1006.220881,96.975
567, 14:08:14,66.480745,189.981061,1002.176136,96.975
568, 14:08:14,66.536577,189.722893,1002.056108,96.975
569, 14:08:14,66.385851,188.69259,998.558949,96.975
570, 14:08:15,66.086293,187.17081,993.104403,96.975
571, 14:08:15,65.980311,186.172467,991.029119,96.975
572, 14:08:15,66.150095,186.681818,992.835227,96.975
573, 14:08:15,66.391335,187.659801,997.055398,96.975
574, 14:08:15,66.3256,187.522727,995.809659,96.975
575, 14:08:15,66.231534,187.151515,994.951705,96.975
576, 14:08:15,66.253551,187.27107,995.336648,96.975
577, 14:08:15,66.346591,187.659091,997.670455,96.975
578, 14:08:15,66.471078,188.268821,999.479403,96.975
579, 14:08:15,66.594934,188.915009,1001.444602,96.975
580, 14:08:15,66.7064,189.462476,1003.269176,96.975
581, 14:08:15,66.795455,189.954545,1004.815341,96.975
582, 14:08:15,66.862453,190.446259,1006.521307,96.975
583, 14:08:15,66.915562,190.833333,1007.974432,96.975
584, 14:08:15,67.033617,191.481061,1009.426136,96.975
585, 14:08:15,67.096236,192.027344,1011.510653,96.975
586, 14:08:15,67.246607,192.732718,1014.328125,96.975
587, 14:08:15,67.339962,193.377841,1016.34375,96.975
588, 14:08:15,67.43896,194.060724,1018.870028,96.975
589, 14:08:15,67.504064,194.743253,1019.746449,96.975
590, 14:08:15,67.659328,195.385653,1022.12642,96.975
591, 14:08:15,67.744437,195.825639,1024.391335,96.975
592, 14:08:15,67.489347,195.204309,1020.896307,96.975
593, 14:08:15,66.522846,191.686435,1007.24929,96.975
594, 14:08:15,65.893821,188.22455,995.307528,96.975
595, 14:08:15,65.862729,187.194247,992.637074,96.975
596, 14:08:15,65.894058,186.936435,992.470881,96.975
597, 14:08:15,65.69401,185.836293,989.449574,96.975
598, 14:08:15,65.46074,184.52616,984.665483,96.975
599, 14:08:15,65.473643,184.109848,984.485795,96.975
600, 14:08:16,65.783262,185.149976,988.348722,96.975
601, 14:08:16,65.811158,185.355824,989.515625,96.975
602, 14:08:16,65.644847,184.808594,986.87429,96.975
603, 14:08:16,65.610835,184.685724,986.767756,96.975
604, 14:08:16,65.697838,184.967093,987.808239,96.975
605, 14:08:16,65.851957,185.696496,991.78125,96.975
606, 14:08:16,65.972498,186.262666,993.12429,96.975
607, 14:08:16,66.062539,186.832978,994.404119,96.975
608, 14:08:16,66.137547,187.392282,996.890625,96.975
609, 14:08:16,66.214528,187.83724,998.739347,96.975
610, 14:08:16,66.29214,188.280303,998.991477,96.975
611, 14:08:16,66.375434,188.793916,1000.814631,96.975
612, 14:08:16,66.451428,189.231652,1002.412642,96.975
613, 14:08:16,66.5436,189.863755,1004.534801,96.975
614, 14:08:16,66.678188,190.555871,1006.448864,96.975
615, 14:08:16,66.8125,191.267519,1009.426136,96.975
616, 14:08:16,66.883404,192.018584,1011.18821,96.975
617, 14:08:16,66.863597,192.283026,1012.328835,96.975
618, 14:08:16,66.502565,191.225024,1006.685369,96.975
619, 14:08:16,65.48039,186.948272,991.567472,96.975
620, 14:08:16,64.904553,183.567353,980.25071,96.975
621, 14:08:16,64.840909,182.506629,978.15625,96.975
622, 14:08:16,64.756155,181.586648,975.150568,96.975
623, 14:08:16,64.505208,180.119792,971.221591,96.975
624, 14:08:16,64.159604,178.438092,965.43821,96.975
625, 14:08:16,64.09446,177.847301,964.112216,96.975
626, 14:08:16,64.371212,178.784564,969.039773,96.975
627, 14:08:16,64.5189,179.440696,970.681108,96.975
628, 14:08:16,64.407513,179.06108,968.957386,96.975
629, 14:08:16,64.351405,178.899384,968.81108,96.975
630, 14:08:17,64.434501,179.346591,969.480114,96.75
631, 14:08:17,64.628946,179.983428,973.551136,96.75
632, 14:08:17,64.807173,180.761009,975.216619,96.75
633, 14:08:17,64.90917,181.412642,978.535511,96.75
634, 14:08:17,64.988952,181.964015,979.474432,96.75
635, 14:08:17,65.088621,182.548532,981.600852,96.75
636, 14:08:17,65.214923,183.215317,983.235085,96.75
637, 14:08:17,65.321536,183.889323,985.506392,96.75
638, 14:08:17,65.420889,184.532552,986.996449,96.75
639, 14:08:17,65.529869,185.230232,990.026278,96.75
640, 14:08:17,65.649897,185.927438,991.627131,96.75
641, 14:08:17,65.786498,186.675781,994.458097,96.75
642, 14:08:17,65.938881,187.450639,996.470881,96.75
643, 14:08:17,66.093632,188.262902,999.838778,96.75
644, 14:08:17,66.250316,189.074337,1002.397727,96.75
645, 14:08:17,66.346433,189.875473,1005.014205,96.75
646, 14:08:17,66.142992,189.684186,1002.852273,96.75
647, 14:08:17,65.158973,185.995857,988.762074,96.75
648, 14:08:17,64.354048,181.935724,974.560369,96.75
649, 14:08:17,64.246843,180.355587,970.991477,96.75
650, 14:08:17,64.22822,179.690814,969.414773,96.75
651, 14:08:17,63.927281,178.313565,964.080256,96.75
652, 14:08:17,63.61482,176.680161,958.416193,96.75
653, 14:08:17,63.438999,175.538589,954.930398,96.75
654, 14:08:17,63.660432,176.079309,958.09233,96.75
655, 14:08:17,63.987689,177.439394,963.803977,96.75
656, 14:08:17,63.989544,177.677438,963.502131,96.75
657, 14:08:17,63.931976,177.445549,963.497159,96.75
658, 14:08:17,63.965396,177.697798,964.010653,96.75
659, 14:08:17,64.162169,178.454309,967.163352,96.75
660, 14:08:18,64.354285,179.280658,969.683949,96.725
661, 14:08:18,64.547112,180.099195,972.294034,96.725
662, 14:08:18,64.674124,180.864702,974.605824,96.725
663, 14:08:18,64.790562,181.518466,976.786932,96.725
664, 14:08:18,64.918205,182.168442,979.402699,96.725
665, 14:08:18,65.031566,182.982955,981.704545,96.725
666, 14:08:18,65.152304,183.749527,983.375,96.725
667, 14:08:18,65.312658,184.5,987.136364,96.725
668, 14:08:18,65.507615,185.446141,989.830256,96.725
669, 14:08:18,65.670573,186.317116,993.388494,96.725
670, 14:08:18,65.813842,187.157907,995.643466,96.725
671, 14:08:18,65.969223,188.00142,998.519886,96.725
672, 14:08:18,66.087989,188.777699,1000.921875,96.725
673, 14:08:18,66.245265,189.72017,1004.241477,96.725
674, 14:08:18,66.36265,190.506984,1006.164062,96.725
675, 14:08:18,66.5189,191.418916,1009.203835,96.725
676, 14:08:18,66.660038,192.007576,1010.630682,96.725
677, 14:08:18,66.81901,192.869437,1014.102983,96.725
678, 14:08:18,67.000079,193.746449,1017.305398,96.725
679, 14:08:18,67.154672,194.589489,1019.596591,96.725
680, 14:08:18,67.262192,195.251539,1022.426847,96.725
681, 14:08:18,66.711766,193.688802,1014.18679,96.725
682, 14:08:18,65.577533,189.386955,997.764915,96.725
683, 14:08:18,65.064315,186.586411,989.112216,96.725
684, 14:08:18,65.043166,185.880445,987.728693,96.725
685, 14:08:18,64.991241,185.288589,985.504261,96.725
686, 14:08:18,64.720407,183.854877,980.257102,96.725
687, 14:08:18,64.455966,182.237689,975.96875,96.725
688, 14:08:18,64.413668,181.605587,974.110795,96.725
689, 14:08:18,64.723288,182.511245,979.308949,96.725
690, 14:08:19,64.904514,183.411458,981.65625,96.7
691, 14:08:19,64.779553,183.069721,980.460938,96.7
692, 14:08:19,64.755287,183.044744,980.012784,96.7
693, 14:08:19,64.82556,183.319484,981.911222,96.7
694, 14:08:19,65.020399,183.990175,983.159801,96.7
695, 14:08:19,65.118726,184.62133,986.301847,96.7
696, 14:08:19,65.276436,185.33357,988.103693,96.7
697, 14:08:19,65.434028,186.109375,991.434659,96.7
698, 14:08:19,65.517006,186.694484,992.03054,96.7
699, 14:08:19,65.587674,187.243134,994.50142,96.7
700, 14:08:19,65.69768,187.814157,995.330966,96.7
701, 14:08:19,65.823232,188.493371,998.610795,96.7
702, 14:08:19,65.933199,189.107836,999.678267,96.7
703, 14:08:19,66.087555,189.905658,1002.828835,96.7
704, 14:08:19,66.215317,190.586293,1004.648438,96.7
705, 14:08:19,66.306108,191.145597,1007.086648,96.7
706, 14:08:19,66.458176,191.876894,1009.553977,96.7
707, 14:08:19,66.630603,192.647491,1012.384943,96.7
708, 14:08:19,66.761127,193.402225,1015.06108,96.7
709, 14:08:19,66.844105,193.887902,1016.779119,96.7
710, 14:08:19,66.567748,193.154001,1012.409801,96.7
711, 14:08:19,65.629972,189.587831,998.768466,96.7
712, 14:08:19,64.991635,186.567235,988.181818,96.7
713, 14:08:19,64.897648,185.447206,985.583807,96.7
714, 14:08:19,64.915088,184.991477,985.244318,96.7
715, 14:08:19,64.683791,183.850142,981.049716,96.7
716, 14:08:19,64.459083,182.643348,976.442472,96.7
717, 14:08:19,64.49858,182.547822,977.642045,96.7
718, 14:08:19,64.855982,183.721354,983.541193,96.7
719, 14:08:19,64.899582,183.927912,983.632812,96.7
720, 14:08:20,64.781289,183.498698,981.833097,96.725
721, 14:08:20,64.7689,183.464844,982.067472,96.725
722, 14:08:20,64.898674,183.893466,983.585227,96.725
723, 14:08:20,65.053109,184.596354,986.117898,96.725
724, 14:08:20,65.197601,185.261837,988.980114,96.725
725, 14:08:20,65.337753,185.934659,991.428977,96.725
726, 14:08:20,65.464055,186.636482,992.460938,96.725
727, 14:08:20,65.549085,187.174242,994.025568,96.725
728, 14:08:20,65.625908,187.706795,995.678267,96.725
729, 14:08:20,65.736387,188.277817,997.806108,96.725
730, 14:08:20,65.836016,188.929924,999.903409,96.725
731, 14:08:20,65.972183,189.614465,1002.81179,96.725
732, 14:08:20,66.114149,190.268584,1004.708097,96.725
733, 14:08:20,66.236545,190.887192,1006.504972,96.725
734, 14:08:20,66.416588,191.648438,1008.93892,96.725
735, 14:08:20,66.554293,192.374527,1011.892045,96.725
736, 14:08:20,66.685803,193.049834,1014.253551,96.725
737, 14:08:20,66.647648,193.100616,1014.245739,96.725
738, 14:08:20,65.895005,190.58937,1003.226562,96.725
739, 14:08:20,64.898635,186.331321,988.612926,96.725
740, 14:08:20,64.537129,184.003433,980.705256,96.725
741, 14:08:20,64.481652,183.211529,978.845881,96.725
742, 14:08:20,64.267479,181.992779,976.098722,96.725
743, 14:08:20,63.923019,180.304569,970.372869,96.725
744, 14:08:20,63.754301,178.822088,966.114347,96.725
745, 14:08:20,63.906645,179.024384,967.512784,96.725
746, 14:08:20,64.266809,180.263021,972.433239,96.725
747, 14:08:20,64.252012,180.496094,973.496449,96.725
748, 14:08:20,64.171441,180.212713,971.585938,96.725
749, 14:08:20,64.230942,180.340554,972.838778,96.725
750, 14:08:21,64.361072,180.882931,974.942472,96.7
751, 14:08:21,64.5378,181.764441,978.086648,96.7
752, 14:08:21,64.692393,182.534564,979.40625,96.7
753, 14:08:21,64.81684,183.259233,982.09233,96.7
754, 14:08:21,64.953046,183.809896,984.274148,96.7
755, 14:08:21,65.072088,184.456795,987.033381,96.7
756, 14:08:21,65.197128,185.214015,988.823864,96.7
757, 14:08:21,65.297427,185.850142,991.007102,96.7
758, 14:08:21,65.434975,186.544034,993.105114,96.7
759, 14:08:21,65.586529,187.255327,996.09446,96.7
760, 14:08:21,65.675663,188.065814,998.363636,96.7
761, 14:08:21,65.841974,188.820431,1000.473722,96.7
762, 14:08:21,65.969736,189.532789,1002.628551,96.7
763, 14:08:21,66.123146,190.252486,1005.727983,96.7
764, 14:08:21,66.289812,191.087713,1008.131392,96.7
765, 14:08:21,66.455098,191.897017,1011.271307,96.7
766, 14:08:21,66.606534,192.598011,1013.428977,96.7
767, 14:08:21,66.5494,192.736742,1013.485795,96.7
768, 14:08:21,65.672033,189.682765,1001.034091,96.7
769, 14:08:21,64.639007,185.060488,984.769176,96.7
770, 14:08:21,64.266848,182.709635,977.181108,96.7
771, 14:08:21,64.173651,181.833925,975.335938,96.7
772, 14:08:21,63.961924,180.59742,970.601562,96.7
773, 14:08:21,63.61336,178.622751,965.287642,96.7
774, 14:08:21,63.4186,177.201349,960.066051,96.7
775, 14:08:21,63.519334,177.187263,961.166193,96.7
776, 14:08:21,63.951823,178.680753,967.996449,96.7
777, 14:08:21,64.043284,179.32777,969.330256,96.7
778, 14:08:21,63.954703,179.038826,967.71875,96.7
779, 14:08:21,63.965672,179.211411,968.87642,96.7
780, 14:08:22,64.151199,179.92803,971.571023,96.725
781, 14:08:22,64.33357,180.807055,975.044034,96.725
782, 14:08:22,64.524108,181.708688,977.939631,96.725
783, 14:08:22,64.68604,182.52687,980.979403,96.725
784, 14:08:22,64.791667,183.247159,983.201705,96.725
785, 14:08:22,64.92077,183.84517,985.136364,96.725
786, 14:08:22,65.036695,184.629498,986.666193,96.725
787, 14:08:22,65.199534,185.368963,990.276278,96.725
788, 14:08:22,65.36699,186.230232,992.620028,96.725
789, 14:08:22,65.501894,186.992424,994.954545,96.725
790, 14:08:22,65.651199,187.905777,997.119318,96.725
791, 14:08:22,65.806345,188.778883,1000.710227,96.725
792, 14:08:22,65.985361,189.598603,1003.262074,96.725
793, 14:08:22,66.138336,190.392756,1005.961648,96.725
794, 14:08:22,66.283617,191.14536,1007.997159,96.725
795, 14:08:22,66.443142,192.00509,1011.263494,96.725
796, 14:08:22,66.610598,192.79723,1014.237926,96.725
797, 14:08:22,66.770478,193.654711,1017.189631,96.725
798, 14:08:22,66.929766,194.478693,1019.889205,96.725
799, 14:08:22,67.078835,195.335938,1022.475852,96.725
800, 14:08:22,67.185764,196.098485,1024.690341,96.725
801, 14:08:22,67.342882,196.924479,1027.62642,96.725
802, 14:08:22,67.530737,197.868726,1030.752131,96.725
803, 14:08:22,67.687934,198.70348,1033.860085,96.725
804, 14:08:22,67.799321,199.484612,1035.771307,96.725
805, 14:08:22,67.45056,198.654711,1030.99929,96.725
806, 14:08:22,66.086253,193.956676,1012.927557,96.725
807, 14:08:22,65.345802,189.889205,999.329545,96.725
808, 14:08:22,65.267006,188.702533,995.070312,96.725
809, 14:08:22,65.222656,188.266927,994.899858,96.725
810, 14:08:23,64.959004,186.959872,989.56321,96.7
811, 14:08:23,64.622869,185.2384,984.50142,96.7
812, 14:08:23,64.498619,184.159683,981.333097,96.7
813, 14:08:23,64.718632,184.751065,985.387074,96.7
814, 14:08:23,65.036774,186.025095,989.230114,96.7
815, 14:08:23,65.038668,186.189394,989.784091,96.7
816, 14:08:23,64.967961,186.017992,988.426136,96.7
817, 14:08:23,65.046757,186.271425,990.014915,96.7
818, 14:08:23,65.208728,186.908381,992.600852,96.7
819, 14:08:23,65.371646,187.704901,995.226562,96.7
820, 14:08:23,65.582978,188.581795,997.678267,96.7
821, 14:08:23,65.738242,189.298532,1000.660511,96.7
822, 14:08:23,65.890191,190.02758,1002.605824,96.7
823, 14:08:23,66.018703,190.697206,1005.22017,96.7
824, 14:08:23,66.08645,191.254143,1007.152699,96.7
825, 14:08:23,66.213187,191.936435,1009.715199,96.7
826, 14:08:23,66.379301,192.730705,1011.980824,96.7
827, 14:08:23,66.535709,193.546993,1014.398438,96.7
828, 14:08:23,66.690341,194.464489,1017.485795,96.7
829, 14:08:23,66.83065,195.232008,1020.698864,96.7
830, 14:08:23,66.976523,196.110914,1022.682528,96.7
831, 14:08:23,67.130721,196.861387,1026.003551,96.7
832, 14:08:23,67.241398,197.642282,1028.163352,96.7
833, 14:08:23,67.413944,198.512192,1030.860085,96.7
834, 14:08:23,67.511127,199.245028,1033.74858,96.7
835, 14:08:23,67.62571,200.026278,1036.169034,96.7
836, 14:08:23,67.511206,199.996212,1034.661932,96.7
837, 14:08:23,66.589804,196.806818,1022.025568,96.7
838, 14:08:23,65.801215,193.001184,1008.475852,96.7
839, 14:08:23,65.622514,191.471236,1003.767756,96.7
840, 14:08:24,65.686514,191.33795,1003.675426,96.7
841, 14:08:24,65.570865,190.576705,1002.130682,96.7
842, 14:08:24,65.333018,189.315814,997.201705,96.7
843, 14:08:24,65.242779,188.73402,995.730824,96.7
844, 14:08:24,65.54869,189.705729,1000.259943,96.7
845, 14:08:24,65.775726,190.640152,1004.230114,96.7
846, 14:08:24,65.705256,190.431581,1002.52983,96.7
847, 14:08:24,65.657276,190.259706,1002.012784,96.7
848, 14:08:24,65.736032,190.453835,1002.737216,96.7
849, 14:08:24,65.894018,191.168324,1005.879261,96.7
850, 14:08:24,66.069484,191.976918,1008.745028,96.7
851, 14:08:24,66.212121,192.655303,1011.272727,96.7
852, 14:08:24,66.315735,193.387074,1013.362216,96.7
853, 14:08:24,66.425466,193.963423,1015.371449,96.7
854, 14:08:24,66.532158,194.649976,1017.15554,96.7
855, 14:08:24,66.631313,195.120265,1019.275568,96.7
856, 14:08:24,66.740807,195.840791,1021.37429,96.7
857, 14:08:24,66.893703,196.508759,1023.328125,96.7
858, 14:08:24,66.985677,197.175781,1024.84446,96.7
859, 14:08:24,67.118568,197.838187,1028.321733,96.7
860, 14:08:24,67.26089,198.625947,1030.497159,96.7
861, 14:08:24,67.378788,199.450284,1033.284091,96.7
862, 14:08:24,67.508681,200.106534,1035.542614,96.7
863, 14:08:24,67.509154,200.337595,1036.454545,96.7
864, 14:08:24,66.812224,198.173414,1025.955256,96.7
865, 14:08:24,65.90917,193.961411,1012.09233,96.7
866, 14:08:24,65.5058,191.399976,1003.37429,96.7
867, 14:08:24,65.497396,190.804688,1002.84517,96.7
868, 14:08:24,65.350971,189.8692,999.291903,96.7
869, 14:08:24,65.111585,188.474905,994.639205,96.7
870, 14:08:25,64.89102,187.213778,990.768466,96.725
871, 14:08:25,64.951626,187.183002,992.098011,96.725
872, 14:08:25,65.346117,188.574811,997.426136,96.725
873, 14:08:25,65.465159,188.997751,998.93821,96.725
874, 14:08:25,65.363163,188.739583,996.875,96.725
875, 14:08:25,65.394137,188.762902,998.409801,96.725
876, 14:08:25,65.51965,189.31179,999.737216,96.725
877, 14:08:25,65.742148,190.094342,1002.912642,96.725
878, 14:08:25,65.925584,190.948153,1006.453125,96.725
879, 14:08:25,66.060409,191.656132,1008.959517,96.725
880, 14:08:25,66.172743,192.24929,1010.34233,96.725
881, 14:08:25,66.288786,192.845052,1012.897017,96.725
882, 14:08:25,66.401199,193.622159,1014.741477,96.725
883, 14:08:25,66.536616,194.20928,1016.84375,96.725
884, 14:08:25,66.685093,194.937855,1019.360085,96.725
885, 14:08:25,66.83503,195.679332,1022.496449,96.725
886, 14:08:25,66.985519,196.494437,1023.924006,96.725
887, 14:08:25,67.152738,197.288234,1027.823153,96.725
888, 14:08:25,67.316012,198.060724,1030.509233,96.725
889, 14:08:25,67.439197,198.826586,1032.502131,96.725
890, 14:08:25,67.547112,199.535748,1035.18608,96.725
891, 14:08:25,67.640783,200.129735,1036.84375,96.725
892, 14:08:25,67.773082,200.751539,1038.767756,96.725
893, 14:08:25,67.923138,201.533144,1042.261364,96.725
894, 14:08:25,68.087792,202.385062,1044.387074,96.725
895, 14:08:25,68.242543,203.165601,1048.385653,96.725
896, 14:08:25,68.102786,203.049834,1046.384233,96.725
897, 14:08:25,67.085069,199.125473,1032.068182,96.725
898, 14:08:25,66.143979,194.329664,1015.108665,96.725
899, 14:08:25,65.897333,192.081676,1008.850852,96.725
900, 14:08:26,65.882891,191.463542,1006.53125,96.725
901, 14:08:26,65.659959,190.091146,1003.265625,96.725
902, 14:08:26,65.281645,188.191525,996.203125,96.725
903, 14:08:26,65.028764,186.762902,992.09446,96.725
904, 14:08:26,65.111151,186.696141,992.46946,96.725
905, 14:08:26,65.506116,188.106889,998.925426,96.725
906, 14:08:26,65.659407,188.696496,1000.903409,96.725
907, 14:08:26,65.589489,188.447443,999.982955,96.725
908, 14:08:26,65.632891,188.486742,1000.184659,96.725
909, 14:08:26,65.759628,188.974432,1002.107955,96.725
910, 14:08:26,65.98327,189.850379,1004.548295,96.725
911, 14:08:26,66.179924,190.705492,1008.735795,96.725
912, 14:08:26,66.333254,191.325047,1010.524148,96.725
913, 14:08:26,66.477312,191.956558,1012.81321,96.725
914, 14:08:26,66.616911,192.615412,1014.837358,96.725
915, 14:08:26,66.757378,193.273082,1017.496449,96.725
916, 14:08:26,66.896188,194.044152,1019.682528,96.725
917, 14:08:26,67.046125,194.720762,1022.727983,96.725
918, 14:08:26,67.189907,195.576823,1025.023438,96.725
919, 14:08:26,67.3503,196.334517,1028.944602,96.725
920, 14:08:26,67.484178,197.186435,1030.121449,96.725
921, 14:08:26,67.662445,197.975024,1032.96946,96.725
922, 14:08:26,67.814907,198.784683,1034.779119,96.725
923, 14:08:26,67.953559,199.554806,1038.595881,96.725
924, 14:08:26,68.11048,200.312973,1041.039773,96.725
925, 14:08:26,68.255761,201.06179,1043.384943,96.725
926, 14:08:26,68.367464,201.82919,1045.270597,96.725
927, 14:08:26,68.510851,202.663234,1048.524858,96.725
928, 14:08:26,68.669271,203.568419,1051.180398,96.725
929, 14:08:26,68.834991,204.357718,1053.941761,96.725
930, 14:08:27,68.661813,204.189039,1051.995028,96.725
931, 14:08:27,67.694366,200.485085,1038.319602,96.725
932, 14:08:27,66.73548,195.598011,1022.036932,96.725
933, 14:08:27,66.421441,193.117069,1015.162642,96.725
934, 14:08:27,66.404987,192.430871,1013.551136,96.725
935, 14:08:27,66.210977,191.310488,1010.022017,96.725
936, 14:08:27,65.858902,189.570076,1002.678977,96.725
937, 14:08:27,65.638849,188.176018,999.556108,96.725
938, 14:08:27,65.735756,188.272609,999.840199,96.725
939, 14:08:27,66.131826,189.690933,1006.512074,96.725
940, 14:08:27,66.243766,190.202888,1008.194602,96.725
941, 14:08:27,66.179964,189.984493,1007.122869,96.725
942, 14:08:27,66.180911,190.005327,1007.014915,96.725
943, 14:08:27,66.319878,190.563329,1008.746449,96.725
944, 14:08:27,66.575955,191.483073,1012.679688,96.725
945, 14:08:27,66.765388,192.331203,1016.478693,96.725
946, 14:08:27,66.958925,193.181226,1018.868608,96.725
947, 14:08:27,67.111821,193.961411,1021.524148,96.725
948, 14:08:27,67.261443,194.577888,1023.515625,96.725
949, 14:08:27,67.375671,195.240175,1026.210938,96.725
950, 14:08:27,67.493805,195.833688,1028.516335,96.725
951, 14:08:27,67.648832,196.642519,1031.088068,96.725
952, 14:08:27,67.81396,197.492069,1033.318892,96.725
953, 14:08:27,67.964962,198.339962,1036.107955,96.725
954, 14:08:27,68.097775,199.177794,1038.521307,96.725
955, 14:08:27,68.251302,199.942827,1041.446733,96.725
956, 14:08:27,68.395557,200.707031,1043.651278,96.725
957, 14:08:27,68.530698,201.487926,1046.725852,96.725
958, 14:08:27,68.644452,202.174361,1048.120028,96.725
959, 14:08:27,68.751933,202.751539,1050.68821,96.725
960, 14:08:28,68.86845,203.516335,1052.004261,96.725
961, 14:08:28,68.977154,204.373698,1054.597301,96.725
962, 14:08:28,69.119989,205.138376,1057.043324,96.725
963, 14:08:28,69.208846,205.726918,1059.316051,96.725
964, 14:08:28,68.677399,204.138258,1051.727273,96.725
965, 14:08:28,67.528054,199.018821,1034.959517,96.725
966, 14:08:28,66.80524,194.996686,1021.460227,96.725
967, 14:08:28,66.741714,193.842566,1018.700284,96.725
968, 14:08:28,66.764362,193.545455,1017.889205,96.725
969, 14:08:28,66.529751,192.340199,1013.683239,96.725
970, 14:08:28,66.246725,190.888849,1008.53196,96.725
971, 14:08:28,66.266098,190.648201,1009.553977,96.725
972, 14:08:28,66.628512,191.868963,1013.995028,96.725
973, 14:08:28,66.740175,192.368726,1016.067472,96.725
974, 14:08:28,66.628748,191.947325,1013.564631,96.725
975, 14:08:28,66.64386,191.856771,1014.34233,96.725
976, 14:08:28,66.786222,192.347775,1015.825284,96.725
977, 14:08:28,67.00363,193.250473,1019.798295,96.725
978, 14:08:28,67.18458,194.065104,1022.430398,96.725
979, 14:08:28,67.326073,194.755208,1025.082386,96.725
980, 14:08:28,67.447601,195.37642,1026.409091,96.725
981, 14:08:28,67.560567,196.018348,1029.627131,96.725
982, 14:08:28,67.686001,196.647491,1030.768466,96.725
983, 14:08:28,67.793442,197.322088,1032.949574,96.725
984, 14:08:28,67.924321,197.983191,1034.990057,96.725
985, 14:08:28,68.059422,198.702415,1038.026989,96.725
986, 14:08:28,68.211135,199.434067,1039.53054,96.725
987, 14:08:28,68.332663,200.197798,1042.567472,96.725
988, 14:08:28,68.483625,201.049361,1044.088778,96.725
989, 14:08:28,68.576231,201.70928,1047.133523,96.725
990, 14:08:29,68.689828,202.301491,1048.152699,96.75
991, 14:08:29,68.817235,203.076705,1051.176136,96.75
992, 14:08:29,68.935646,203.983546,1052.804688,96.75
993, 14:08:29,69.032355,204.533617,1055.96875,96.75
994, 14:08:29,68.760614,203.894058,1052.020597,96.75
995, 14:08:29,67.665878,199.284564,1035.792614,96.75
996, 14:08:29,66.69259,194.383641,1019.591619,96.75
997, 14:08:29,66.480587,192.412879,1013.517045,96.75
998, 14:08:29,66.452612,191.896662,1012.519176,96.75
999, 14:08:29,66.219145,190.695786,1008.47017,96.75
1000, 14:08:29,65.870068,188.852154,1001.962358,96.75
1001, 14:08:29,65.706084,187.7442,998.945312,96.75
1002, 14:08:29,65.898122,188.247869,1001.606534,96.75
1003, 14:08:29,66.253196,189.630327,1007.080256,96.75
1004, 14:08:29,66.286419,189.870147,1007.013494,96.75
1005, 14:08:29,66.22526,189.521425,1006.168324,96.75
1006, 14:08:29,66.26527,189.701586,1006.666903,96.75
1007, 14:08:29,66.483191,190.491241,1009.77983,96.75
1008, 14:08:29,66.670967,191.37938,1013.639915,96.75
1009, 14:08:29,66.889086,192.36849,1016.708097,96.75
1010, 14:08:29,66.997396,193.014915,1018.518466,96.75
1011, 14:08:29,67.121252,193.609493,1020.665483,96.75
1012, 14:08:29,67.270005,194.301491,1023.365767,96.75
1013, 14:08:29,67.403843,194.965317,1025.18679,96.75
1014, 14:08:29,67.507102,195.653883,1026.423295,96.75
1015, 14:08:29,67.69697,196.423295,1030.775568,96.75
1016, 14:08:29,67.83724,197.222893,1032.891335,96.75
1017, 14:08:29,67.970131,197.985677,1035.300426,96.75
1018, 14:08:29,68.110835,198.74633,1037.148438,96.75
1019, 14:08:29,68.237729,199.516217,1039.889915,96.75
1020, 14:08:30,68.39899,200.356534,1042.534091,96.75
1021, 14:08:30,68.550545,201.183357,1045.980824,96.75
1022, 14:08:30,68.686908,201.985914,1047.193892,96.75
1023, 14:08:30,68.720289,202.609257,1048.814631,96.75
1024, 14:08:30,68.85176,203.274976,1051.433949,96.75
1025, 14:08:30,69.003551,204.10393,1054.100852,96.75
1026, 14:08:30,69.173335,205.06688,1057.174006,96.75
1027, 14:08:30,69.351484,205.927083,1059.806818,96.75
1028, 14:08:30,69.140901,205.672704,1058.490767,96.75
1029, 14:08:30,67.941209,201.002604,1041.072443,96.75
1030, 14:08:30,66.798611,195.311553,1021.704545,96.75
1031, 14:08:30,66.41063,192.560961,1014.149858,96.75
1032, 14:08:30,66.413905,191.959517,1012.271307,96.75
1033, 14:08:30,66.189236,190.707386,1008.110795,96.75
1034, 14:08:30,65.80161,188.691288,1000.576705,96.75
1035, 14:08:30,65.581203,187.027699,996.504261,96.75
1036, 14:08:30,65.685724,187.081795,997.101562,96.75
1037, 14:08:30,66.098761,188.383878,1003.493608,96.75
1038, 14:08:30,66.232797,189.101799,1005.164773,96.75
1039, 14:08:30,66.121054,188.804451,1004.130682,96.75
1040, 14:08:30,66.158696,188.725142,1003.933239,96.75
1041, 14:08:30,66.305319,189.142756,1006.137784,96.75
1042, 14:08:30,66.515152,190.106534,1009.028409,96.75
1043, 14:08:30,66.752683,191.045455,1012.744318,96.75
1044, 14:08:30,66.889402,191.878906,1015.583097,96.75
1045, 14:08:30,67.022609,192.570194,1018.142756,96.75
1046, 14:08:30,67.173019,193.374171,1020.122869,96.75
1047, 14:08:30,67.297861,194.015743,1022.716619,96.75
1048, 14:08:30,67.457229,194.691761,1025.065341,96.75
1049, 14:08:30,67.635022,195.501657,1028.117898,96.75
1050, 14:08:31,67.780461,196.276042,1029.576705,96.75
1051, 14:08:31,67.978575,197.181937,1033.980824,96.75
1052, 14:08:31,68.108665,197.975616,1035.43608,96.75
1053, 14:08:31,68.272767,198.804096,1038.799006,96.75
1054, 14:08:31,68.382615,199.597183,1040.489347,96.75
1055, 14:08:31,68.581282,200.481534,1043.397727,96.75
1056, 14:08:31,68.75801,201.405185,1047.169744,96.75
1057, 14:08:31,68.898398,202.196615,1049.946733,96.75
1058, 14:08:31,68.963423,202.757694,1050.71946,96.75
1059, 14:08:31,68.266138,200.500592,1041.142756,96.75
1060, 14:08:31,67.181818,195.632102,1023.414773,96.75
1061, 14:08:31,66.644097,192.541193,1013.792614,96.75
1062, 14:08:31,66.629774,191.818774,1012.165483,96.75
1063, 14:08:31,66.53997,191.196615,1010.745028,96.75
1064, 14:08:31,66.27691,189.672112,1004.973011,96.75
1065, 14:08:31,66.034012,188.074574,1000.72017,96.75
1066, 14:08:31,66.064512,187.790128,999.345881,96.75
1067, 14:08:31,66.406487,188.930634,1004.99858,96.75
1068, 14:08:31,66.600063,189.764205,1007.09375,96.75
1069, 14:08:31,66.518348,189.569247,1006.850142,96.75
1070, 14:08:31,66.53709,189.506629,1006.474432,96.75
1071, 14:08:31,66.650687,189.92081,1007.84304,96.75
1072, 14:08:31,66.852825,190.66785,1011.191761,96.75
1073, 14:08:31,67.006274,191.404711,1014.18679,96.75
1074, 14:08:31,67.187382,192.252012,1016.847301,96.75
1075, 14:08:31,67.307331,193.008641,1019.134233,96.75
1076, 14:08:31,67.413668,193.700758,1020.772727,96.75
1077, 14:08:31,67.533775,194.340436,1023.900568,96.75
1078, 14:08:31,67.624724,194.963187,1025.054688,96.75
1079, 14:08:31,67.803149,195.686435,1028.928267,96.75
1080, 14:08:32,67.911182,196.32919,1029.429688,96.725
1081, 14:08:32,68.087003,197.062145,1032.401278,96.725
1082, 14:08:32,68.225063,197.794981,1034.599432,96.725
1083, 14:08:32,68.369358,198.571141,1037.372869,96.725
1084, 14:08:32,68.510811,199.393703,1039.65483,96.725
1085, 14:08:32,68.588542,200.181345,1041.690341,96.725
1086, 14:08:32,68.521978,200.037997,1040.679688,96.725
1087, 14:08:32,67.618884,196.676255,1027.404119,96.725
1088, 14:08:32,66.771741,192.583688,1013.709517,96.725
1089, 14:08:32,66.552715,190.901515,1008.258523,96.725
1090, 14:08:32,66.56104,190.454427,1007.948153,96.725
1091, 14:08:32,66.444326,189.71366,1005.801847,96.725
1092, 14:08:32,66.233467,188.427202,1000.787642,96.725
1093, 14:08:32,66.160669,187.697917,999.815341,96.725
1094, 14:08:32,66.457544,188.62358,1003.289773,96.725
1095, 14:08:32,66.591738,189.386009,1005.801847,96.725
1096, 14:08:32,66.464015,188.866951,1003.071023,96.725
1097, 14:08:32,66.396031,188.593395,1002.898438,96.725
1098, 14:08:32,66.479167,188.762784,1004.088068,96.725
1099, 14:08:32,66.64607,189.433002,1007.40483,96.725
1100, 14:08:32,66.772688,190.114938,1007.99929,96.725
1101, 14:08:32,66.904119,190.826941,1011.552557,96.725
1102, 14:08:32,67.032631,191.564749,1012.84304,96.725
1103, 14:08:32,67.12062,192.101918,1015.179688,96.725
1104, 14:08:32,67.199021,192.547822,1016.775568,96.725
1105, 14:08:32,67.268269,193.100734,1018.391335,96.725
1106, 14:08:32,67.350773,193.558949,1018.958807,96.725
1107, 14:08:32,67.431621,194.195904,1022.21804,96.725
1108, 14:08:32,67.585938,194.932055,1024.09233,96.725
1109, 14:08:32,67.745778,195.686671,1026.262074,96.725
1110, 14:08:33,67.865767,196.307055,1029.038352,96.725
1111, 14:08:33,68.025095,197.030777,1032.008523,96.725
1112, 14:08:33,67.964844,197.149266,1031.549006,96.725
1113, 14:08:33,67.147964,194.211884,1019.74858,96.725
1114, 14:08:33,66.117858,189.371567,1003.115767,96.725
1115, 14:08:33,65.771228,187.027699,995.34233,96.725
1116, 14:08:33,65.756905,186.237098,992.976562,96.725
1117, 14:08:33,65.635969,185.41785,990.240057,96.725
1118, 14:08:33,65.368411,183.888376,985.583097,96.725
1119, 14:08:33,65.232363,182.849077,983.017756,96.725
1120, 14:08:33,65.463976,183.566643,985.56179,96.725
1121, 14:08:33,65.684462,184.484257,989.786222,96.725
1122, 14:08:33,65.595762,184.303859,988.581676,96.725
1123, 14:08:33,65.538352,184.02178,987.78125,96.725
1124, 14:08:33,65.534485,184.185369,987.285511,96.725
1125, 14:08:33,65.69113,184.881155,990.832386,96.725
1126, 14:08:33,65.866714,185.703835,993.393466,96.725
1127, 14:08:33,65.981218,186.396307,996.136364,96.725
1128, 14:08:33,66.079664,186.97242,997.527699,96.725
1129, 14:08:33,66.215238,187.592685,1000.058949,96.725
1130, 14:08:33,66.259628,188.100379,1001.136364,96.725
1131, 14:08:33,66.373935,188.665365,1003.449574,96.725
1132, 14:08:33,66.445983,189.198272,1004.567472,96.725
1133, 14:08:33,66.550189,189.908144,1006.588068,96.725
1134, 14:08:33,66.727628,190.641217,1008.676847,96.725
1135, 14:08:33,66.861821,191.453362,1012.419034,96.725
1136, 14:08:33,66.932607,192.120739,1014.315341,96.725
1137, 14:08:33,66.773516,191.800663,1012.332386,96.725
1138, 14:08:33,65.871843,188.351799,999.301136,96.725
1139, 14:08:33,64.931503,183.72822,983.911932,96.725
1140, 14:08:34,64.698943,181.620028,976.46733,96.75
1141, 14:08:34,64.657749,180.790956,974.370739,96.75
1142, 14:08:34,64.370502,179.428741,969.899148,96.75
1143, 14:08:34,64.038826,177.765625,964.855114,96.75
1144, 14:08:34,63.888731,176.753788,961.801136,96.75
1145, 14:08:34,64.118726,177.39974,965.966619,96.75
1146, 14:08:34,64.477352,178.946259,971.816761,96.75
1147, 14:08:34,64.442274,179.163471,971.193892,96.75
1148, 14:08:34,64.390822,178.935251,970.182528,96.75
1149, 14:08:34,64.477312,179.299361,971.560369,96.75
1150, 14:08:34,64.674519,180.102628,973.931108,96.75
1151, 14:08:34,64.886127,180.999763,978.495739,96.75
1152, 14:08:34,65.050347,181.877841,980.832386,96.75
1153, 14:08:34,65.203401,182.693537,984.43679,96.75
1154, 14:08:34,65.343237,183.45206,986.334517,96.75
1155, 14:08:34,65.451862,184.290246,988.491477,96.75
1156, 14:08:34,65.57994,185.012547,990.62358,96.75
1157, 14:08:34,65.728614,185.825994,993.856534,96.75
1158, 14:08:34,65.893308,186.556818,996.164773,96.75
1159, 14:08:34,66.042693,187.489347,999.348011,96.75
1160, 14:08:34,66.174479,188.3009,1001.487216,96.75
1161, 14:08:34,66.328796,189.228338,1004.330256,96.75
1162, 14:08:34,66.516848,190.132457,1007.414062,96.75
1163, 14:08:34,66.601957,191.058712,1010.008523,96.75
1164, 14:08:34,66.750947,191.918087,1012.639205,96.75
1165, 14:08:34,66.882931,192.670573,1015.054688,96.75
1166, 14:08:34,67.057489,193.371804,1018.060369,96.75
1167, 14:08:34,67.225497,194.221946,1021.37429,96.75
1168, 14:08:34,67.398793,195.135298,1023.911222,96.75
1169, 14:08:34,67.549479,195.959991,1026.390625,96.75
1170, 14:08:35,67.213305,195.131392,1021.987216,96.725
1171, 14:08:35,65.959793,190.333925,1003.941051,96.725
1172, 14:08:35,65.108428,185.920455,988.198864,96.725
1173, 14:08:35,64.972775,184.540483,984.271307,96.725
1174, 14:08:35,64.93679,183.79143,982.569602,96.725
1175, 14:08:35,64.663313,182.252723,977.729403,96.725
1176, 14:08:35,64.366398,180.308002,972.100852,96.725
1177, 14:08:35,64.23761,179.248816,969.72017,96.725
1178, 14:08:35,64.463344,179.70348,970.652699,96.725
1179, 14:08:35,64.804372,181.138494,976.953125,96.725
1180, 14:08:35,64.830216,181.459872,977.057528,96.725
1181, 14:08:35,64.777186,181.317827,976.850142,96.725
1182, 14:08:35,64.845249,181.518703,977.353693,96.725
1183, 14:08:35,64.999961,182.257931,981.416903,96.725
1184, 14:08:35,65.182371,183.158854,983.490057,96.725
1185, 14:08:35,65.338384,183.988163,986.272727,96.725
1186, 14:08:35,65.4622,184.718513,988.504261,96.725
1187, 14:08:35,65.584201,185.374763,990.580966,96.725
1188, 14:08:35,65.69401,186.020478,993.210938,96.725
1189, 14:08:35,65.855548,186.87062,994.939631,96.725
1190, 14:08:35,65.997909,187.567116,998.365767,96.725
1191, 14:08:35,66.119555,188.257339,1000.393466,96.725
1192, 14:08:35,66.252131,189.158854,1002.231534,96.725
1193, 14:08:35,66.394176,189.984138,1006.296875,96.725
1194, 14:08:35,66.551255,190.742779,1008.334517,96.725
1195, 14:08:35,66.675939,191.637192,1011.229403,96.725
1196, 14:08:35,66.844815,192.447798,1013.803267,96.725
1197, 14:08:35,66.972262,193.154474,1016.787642,96.725
1198, 14:08:35,67.108467,193.897846,1018.588778,96.725
1199, 14:08:35,67.250829,194.540365,1021.267756,96.725
1200, 14:08:36,67.425229,195.449455,1024.316051,96.725
1201, 14:08:36,67.599077,196.335109,1027.110085,96.725
1202, 14:08:36,67.704348,197.078954,1028.970881,96.725
1203, 14:08:36,67.335622,196.097775,1024.137784,96.725
1204, 14:08:36,66.173019,191.547467,1007.477983,96.725
1205, 14:08:36,65.368332,187.581795,993.817472,96.725
1206, 14:08:36,65.252131,186.050426,988.62358,96.725
1207, 14:08:36,65.21875,185.392045,987.377841,96.725
1208, 14:08:36,64.943458,183.89098,982.40554,96.725
1209, 14:08:36,64.595131,181.899976,977.070312,96.725
1210, 14:08:36,64.485046,180.822562,974.174006,96.725
1211, 14:08:36,64.690104,181.356771,977.495739,96.725
1212, 14:08:36,65.027186,182.658736,982.043324,96.725
1213, 14:08:36,64.948864,182.60322,981.650568,96.725
1214, 14:08:36,64.848327,182.254261,979.213068,96.725
1215, 14:08:36,64.893782,182.411932,980.235795,96.725
1216, 14:08:36,65.046086,183.038826,983.190341,96.725
1217, 14:08:36,65.210661,183.713423,985.635653,96.725
1218, 14:08:36,65.341343,184.460109,987.882812,96.725
1219, 14:08:36,65.486032,185.238873,990.691761,96.725
1220, 14:08:36,65.616438,185.959635,992.871449,96.725
1221, 14:08:36,65.670889,186.45348,994.448153,96.725
1222, 14:08:36,65.799716,187.142045,996.517045,96.725
1223, 14:08:36,65.924519,187.832268,998.547585,96.725
1224, 14:08:36,66.048651,188.48402,1001.091619,96.725
1225, 14:08:36,66.148438,189.263021,1003.245739,96.725
1226, 14:08:36,66.285945,190.055279,1005.277699,96.725
1227, 14:08:36,66.408223,190.779119,1008.134943,96.725
1228, 14:08:36,66.55883,191.565696,1010.87429,96.725
1229, 14:08:36,66.707071,192.359848,1013.068182,96.725
1230, 14:08:37,66.849037,193.110559,1015.737216,96.7
1231, 14:08:37,66.876973,193.427794,1017.171875,96.7
1232, 14:08:37,66.199179,191.161932,1006.321023,96.7
1233, 14:08:37,65.043916,186.508168,990.162642,96.7
1234, 14:08:37,64.627999,183.672822,980.84375,96.7
1235, 14:08:37,64.595486,182.847064,979.775568,96.7
1236, 14:08:37,64.530185,182.201823,978.213778,96.7
1237, 14:08:37,64.271307,180.800189,973.3125,96.7
1238, 14:08:37,64.054451,179.588542,969.190341,96.7
1239, 14:08:37,64.27691,180.114347,972.830966,96.7
1240, 14:08:37,64.538037,181.33428,976.420455,96.7
1241, 14:08:37,64.484375,181.348011,976.559659,96.7
1242, 14:08:37,64.387113,180.919389,974.760653,96.7
1243, 14:08:37,64.453717,181.15045,975.93679,96.7
1244, 14:08:37,64.595328,181.930871,977.965909,96.7
1245, 14:08:37,64.770873,182.655421,982.003551,96.7
1246, 14:08:37,64.936237,183.508049,984.474432,96.7
1247, 14:08:37,65.112334,184.344105,987.820312,96.7
1248, 14:08:37,65.247633,184.987216,989.701705,96.7
1249, 14:08:37,65.326468,185.633759,991.18892,96.7
1250, 14:08:37,65.427754,186.219342,992.327415,96.7
1251, 14:08:37,65.519295,186.89169,995.56321,96.7
1252, 14:08:37,65.647096,187.512311,996.65625,96.7
1253, 14:08:37,65.762074,188.379025,1000.399148,96.7
1254, 14:08:37,65.971354,189.236506,1003.27983,96.7
1255, 14:08:37,66.128235,190.147964,1006.37358,96.7
1256, 14:08:37,66.272175,190.851562,1007.81392,96.7
1257, 14:08:37,66.257221,191.059067,1009.050426,96.7
1258, 14:08:37,65.377249,188.197088,996.299006,96.7
1259, 14:08:37,64.294074,183.210346,980.426847,96.7
1260, 14:08:38,63.86261,180.661222,971.254261,96.7
1261, 14:08:38,63.852115,179.921402,969.619318,96.7
1262, 14:08:38,63.785314,179.115412,967.362926,96.7
1263, 14:08:38,63.532749,177.651752,962.819602,96.7
1264, 14:08:38,63.376539,176.626302,959.056108,96.7
1265, 14:08:38,63.600182,177.290601,962.823153,96.7
1266, 14:08:38,63.967408,178.659328,968.544034,96.7
1267, 14:08:38,63.94401,178.792259,968.492188,96.7
1268, 14:08:38,63.8241,178.548059,966.916193,96.7
1269, 14:08:38,63.86407,178.684541,968.149858,96.7
1270, 14:08:38,64.072719,179.458688,970.786222,96.7
1271, 14:08:38,64.25943,180.451586,973.803267,96.7
1272, 14:08:38,64.429175,181.281842,977.293324,96.7
1273, 14:08:38,64.579822,182.039181,979.706676,96.7
1274, 14:08:38,64.714015,182.768939,982.519886,96.7
1275, 14:08:38,64.812105,183.537642,984.487216,96.7
1276, 14:08:38,64.943261,184.236979,986.714489,96.7
1277, 14:08:38,65.06179,184.920691,988.819602,96.7
1278, 14:08:38,65.213739,185.665365,991.489347,96.7
1279, 14:08:38,65.378078,186.540009,994.99858,96.7
1280, 14:08:38,65.502999,187.293087,997.071023,96.7
1281, 14:08:38,65.623067,188.062382,998.791903,96.7
1282, 14:08:38,65.831242,189.019768,1002.973722,96.7
1283, 14:08:38,66.030224,189.969934,1006.191761,96.7
1284, 14:08:38,66.179648,190.752959,1008.426847,96.7
1285, 14:08:38,65.98185,190.32197,1006.272727,96.7
1286, 14:08:38,64.708373,185.759115,988.245028,96.7
1287, 14:08:38,63.683436,180.654474,971.975142,96.7
1288, 14:08:38,63.450994,178.817945,965.37642,96.7
1289, 14:08:38,63.424913,178.008168,963.966619,96.7
1290, 14:08:39,63.214055,176.616122,958.352983,96.7
1291, 14:08:39,62.883049,174.763731,951.943182,96.7
1292, 14:08:39,62.666785,173.588423,947.681108,96.7
1293, 14:08:39,62.90696,174.147017,951.683239,96.7
1294, 14:08:39,63.351562,175.816051,958.024148,96.7
1295, 14:08:39,63.415049,176.210109,960.064631,96.7
1296, 14:08:39,63.349037,176.040009,958.757102,96.7
1297, 14:08:39,63.430832,176.292495,960.084517,96.7
1298, 14:08:39,63.617543,177.013139,963.084517,96.7
1299, 14:08:39,63.877446,178.055634,967.163352,96.7
1300, 14:08:39,64.062579,179.120975,970.174716,96.7
1301, 14:08:39,64.237216,179.939867,973.747159,96.7
1302, 14:08:39,64.34809,180.744555,975.024148,96.7
1303, 14:08:39,64.519255,181.452652,978.84375,96.7
1304, 14:08:39,64.681266,182.28054,981.464489,96.7
1305, 14:08:39,64.86774,183.190341,984.426136,96.7
1306, 14:08:39,65.019216,183.978101,987.629972,96.7
1307, 14:08:39,65.176018,184.890743,990.492188,96.7
1308, 14:08:39,65.353772,185.860085,992.859375,96.7
1309, 14:08:39,65.524542,186.819366,996.137784,96.7
1310, 14:08:39,65.676807,187.698035,999.364347,96.7
1311, 14:08:39,65.836372,188.545099,1002.557528,96.7
1312, 14:08:39,66.000552,189.544744,1004.379261,96.7
1313, 14:08:39,66.163471,190.274029,1007.522017,96.7
1314, 14:08:39,66.33136,191.060843,1009.981534,96.7
1315, 14:08:39,66.485322,191.788826,1013.411932,96.7
1316, 14:08:39,66.658973,192.721709,1015.617188,96.7
1317, 14:08:39,66.897372,193.785866,1019.996449,96.7
1318, 14:08:39,67.088305,194.748816,1023.421875,96.7
1319, 14:08:39,67.032592,194.932528,1022.84233,96.7
1320, 14:08:40,65.796875,190.721117,1005.338068,96.45
1321, 14:08:40,64.45715,184.473248,984.705966,96.45
1322, 14:08:40,63.992385,181.436908,974.240767,96.45
1323, 14:08:40,63.994555,180.6759,973.461648,96.45
1324, 14:08:40,63.845368,179.529474,969.409801,96.45
1325, 14:08:40,63.507339,177.564631,962.098011,96.45
1326, 14:08:40,63.22893,175.889915,956.759943,96.45
1327, 14:08:40,63.283065,175.749763,957.40483,96.45
1328, 14:08:40,63.758207,177.350852,964.775568,96.45
1329, 14:08:40,63.977825,178.181108,968.509943,96.45
1330, 14:08:40,63.882734,178.036932,966.536932,96.45
1331, 14:08:40,63.920336,178.096709,967.162642,96.45
1332, 14:08:40,64.09592,178.692116,969.797585,96.45
1333, 14:08:40,64.32485,179.66063,972.824574,96.45
1334, 14:08:40,64.546086,180.669981,976.338068,96.45
1335, 14:08:40,64.751736,181.576231,980.806818,96.45
1336, 14:08:40,64.949021,182.527936,983.133523,96.45
1337, 14:08:40,65.051531,183.290956,986.333807,96.45
1338, 14:08:40,65.177754,184.102865,987.770597,96.45
1339, 14:08:40,65.318774,184.834635,991.206676,96.45
1340, 14:08:40,65.498185,185.671638,993.052557,96.45
1341, 14:08:40,65.673848,186.525805,996.504261,96.45
1342, 14:08:40,65.8183,187.407552,999.073153,96.45
1343, 14:08:40,65.988518,188.387429,1002.28196,96.45
1344, 14:08:40,66.117898,189.206439,1004.613636,96.45
1345, 14:08:40,66.26018,190.101089,1007.447443,96.45
1346, 14:08:40,66.444721,190.92223,1010.004972,96.45
1347, 14:08:40,66.629143,191.86849,1013.477983,96.45
1348, 14:08:40,66.806187,192.704072,1016.110795,96.45
1349, 14:08:40,66.888179,193.329309,1018.103693,96.45
1350, 14:08:41,66.180911,191.065933,1007.645597,96.4
1351, 14:08:41,64.877723,185.413944,988.691051,96.4
1352, 14:08:41,64.242977,181.711411,975.865057,96.4
1353, 14:08:41,64.29431,180.876776,975.46804,96.4
1354, 14:08:41,64.278449,180.593868,974.290483,96.4
1355, 14:08:41,64.092645,179.393939,970.488636,96.4
1356, 14:08:41,63.857205,178.111861,965.727983,96.4
1357, 14:08:41,64.062105,178.512547,968.37642,96.4
1358, 14:08:41,64.484375,180.088542,974.528409,96.4
1359, 14:08:41,64.505642,180.366832,976.047585,96.4
1360, 14:08:41,64.426136,180.024621,973.860795,96.4
1361, 14:08:41,64.447364,180.1366,974.365057,96.4
1362, 14:08:41,64.627723,180.87133,976.904119,96.4
1363, 14:08:41,64.861742,181.841383,980.963068,96.4
1364, 14:08:41,65.014836,182.910511,982.914773,96.4
1365, 14:08:41,65.237768,183.816525,987.785511,96.4
1366, 14:08:41,65.390349,184.58724,990.318892,96.4
1367, 14:08:41,65.528527,185.388613,992.422585,96.4
1368, 14:08:41,65.581084,185.886719,992.689631,96.4
1369, 14:08:41,65.693419,186.631392,996.18608,96.4
1370, 14:08:41,65.849313,187.330611,997.918324,96.4
1371, 14:08:41,66.011561,188.218395,1001.193892,96.4
1372, 14:08:41,66.222577,189.21224,1004.827415,96.4
1373, 14:08:41,66.391533,190.25509,1008.40554,96.4
1374, 14:08:41,66.545967,191.084872,1011.111506,96.4
1375, 14:08:41,66.510377,191.280185,1011.269176,96.4
1376, 14:08:41,65.512745,187.768348,995.550426,96.4
1377, 14:08:41,64.37792,182.434422,978.867898,96.4
1378, 14:08:41,64.101484,179.89678,970.369318,96.4
1379, 14:08:41,64.128591,179.338897,970.522017,96.4
1380, 14:08:42,63.998737,178.548769,966.681818,96.425
1381, 14:08:42,63.710069,177.054924,962.815341,96.425
1382, 14:08:42,63.534328,176.014441,958.65483,96.425
1383, 14:08:42,63.791312,176.668442,962.033381,96.425
1384, 14:08:42,64.189828,178.345052,968.567472,96.425
1385, 14:08:42,64.226681,178.637902,970.171165,96.425
1386, 14:08:42,64.132536,178.274976,967.837358,96.425
1387, 14:08:42,64.200955,178.550781,969.057528,96.425
1388, 14:08:42,64.433357,179.48473,972.470881,96.425
1389, 14:08:42,64.687066,180.530895,976.727983,96.425
1390, 14:08:42,64.862532,181.508523,979.784091,96.425
1391, 14:08:42,65.031013,182.424953,983.27983,96.425
1392, 14:08:42,65.167219,183.245975,985.197443,96.425
1393, 14:08:42,65.310922,183.971591,988.366477,96.425
1394, 14:08:42,65.427991,184.653764,989.379972,96.425
1395, 14:08:42,65.521701,185.428741,991.796875,96.425
1396, 14:08:42,65.69259,186.26669,995.213778,96.425
1397, 14:08:42,65.890664,187.160156,998.290483,96.425
1398, 14:08:42,66.039299,188.139205,1001.002841,96.425
1399, 14:08:42,66.238005,189.035038,1004.704545,96.425
1400, 14:08:42,66.403449,189.883168,1007.088778,96.425
1401, 14:08:42,66.546165,190.733191,1010.146307,96.425
1402, 14:08:42,66.633878,191.463187,1012.486506,96.425
1403, 14:08:42,66.796914,192.323509,1015.296165,96.425
1404, 14:08:42,67.012902,193.251302,1017.706676,96.425
1405, 14:08:42,67.189828,194.121094,1021.377131,96.425
1406, 14:08:42,67.180595,194.330137,1021.023438,96.425
1407, 14:08:42,66.062105,190.478456,1006.276989,96.425
1408, 14:08:42,64.759904,184.585582,984.397017,96.425
1409, 14:08:42,64.38881,181.532907,976.81392,96.425
1410, 14:08:43,64.426965,180.839134,974.208097,96.425
1411, 14:08:43,64.286932,179.758996,971.414773,96.425
1412, 14:08:43,63.924676,177.874408,964.473722,96.425
1413, 14:08:43,63.665759,176.329664,960.21946,96.425
1414, 14:08:43,63.717527,176.136009,959.932528,96.425
1415, 14:08:43,64.155066,177.737453,966.649148,96.425
1416, 14:08:43,64.38084,178.750947,970.352273,96.425
1417, 14:08:43,64.305753,178.475971,969.051847,96.425
1418, 14:08:43,64.340988,178.575047,968.663352,96.425
1419, 14:08:43,64.478062,179.142519,971.551136,96.425
1420, 14:08:43,64.746765,180.158381,975.160511,96.425
1421, 14:08:43,64.981495,181.146662,979.414062,96.425
1422, 14:08:43,65.162208,182.028291,982.161222,96.425
1423, 14:08:43,65.288076,182.729759,984.682528,96.425
1424, 14:08:43,65.411419,183.456795,986.317472,96.425
1425, 14:08:43,65.555911,184.281842,989.549006,96.425
1426, 14:08:43,65.650016,185.12571,989.768466,96.425
1427, 14:08:43,65.85468,185.904474,994.580256,96.425
1428, 14:08:43,66.013968,186.825994,995.990057,96.425
1429, 14:08:43,66.215909,187.732481,1000.809659,96.425
1430, 14:08:43,66.389481,188.741359,1003.473722,96.425
1431, 14:08:43,66.558436,189.51527,1006.196733,96.425
1432, 14:08:43,66.672427,190.288589,1008.072443,96.425
1433, 14:08:43,66.793482,191.040483,1011.100852,96.425
1434, 14:08:43,66.971788,191.983546,1014.404119,96.425
1435, 14:08:43,67.125158,193.075284,1018.522727,96.425
1436, 14:08:43,67.272057,193.752249,1020.149858,96.425
1437, 14:08:43,67.025055,193.21295,1016.524858,96.425
1438, 14:08:43,65.852549,188.704427,999.348722,96.425
1439, 14:08:43,64.988163,184.300189,985.184659,96.425
1440, 14:08:44,64.928543,182.841974,980.171165,96.425
1441, 14:08:44,64.942748,182.369437,979.131392,96.425
1442, 14:08:44,64.754025,181.167377,975.370739,96.425
1443, 14:08:44,64.432213,179.565578,970.776989,96.425
1444, 14:08:44,64.310764,178.662405,967.383523,96.425
1445, 14:08:44,64.548848,179.359138,971.899148,96.425
1446, 14:08:44,64.921993,180.889086,977.323153,96.425
1447, 14:08:44,64.935409,181.152817,977.888494,96.425
1448, 14:08:44,64.855469,180.939986,976.253551,96.425
1449, 14:08:44,64.925545,181.218868,977.489347,96.425
1450, 14:08:44,65.117858,182.010298,980.118608,96.425
1451, 14:08:44,65.29794,182.875829,983.652699,96.425
1452, 14:08:44,65.455571,183.716146,986.305398,96.425
1453, 14:08:44,65.609651,184.55812,989.868608,96.425
1454, 14:08:44,65.782552,185.437145,991.932528,96.425
1455, 14:08:44,65.8677,186.067116,994.638494,96.425
1456, 14:08:44,65.962397,186.753196,996.164062,96.425
1457, 14:08:44,66.047901,187.475142,997.799716,96.425
1458, 14:08:44,66.246962,188.329901,1001.064631,96.425
1459, 14:08:44,66.369871,189.1134,1003.75142,96.425
1460, 14:08:44,66.523674,189.891572,1006.247159,96.425
1461, 14:08:44,66.672427,190.746922,1009.671875,96.425
1462, 14:08:44,66.791588,191.718513,1011.228693,96.425
1463, 14:08:44,66.937737,192.486506,1015.28267,96.425
1464, 14:08:44,66.8677,192.574219,1014.075994,96.425
1465, 14:08:44,65.938013,189.258641,1001.046165,96.425
1466, 14:08:44,65.053109,184.87429,985.745739,96.425
1467, 14:08:44,64.836411,182.986979,980.924716,96.425
1468, 14:08:44,64.856218,182.692708,980.786932,96.425
1469, 14:08:44,64.770912,182.009706,977.848011,96.425
1470, 14:08:45,64.557213,180.883286,973.930398,96.425
1471, 14:08:45,64.520952,180.39098,972.862926,96.425
1472, 14:08:45,64.825797,181.548887,977.745028,96.425
1473, 14:08:45,65.007655,182.530066,981.606534,96.425
1474, 14:08:45,64.89098,182.283262,980.00071,96.425
1475, 14:08:45,64.859809,182.144768,979.485085,96.425
1476, 14:08:45,64.933515,182.466738,980.979403,96.425
1477, 14:08:45,65.092645,183.154356,983.911932,96.425
1478, 14:08:45,65.2442,184.022372,985.682528,96.425
1479, 14:08:45,65.424361,184.906132,988.928267,96.425
1480, 14:08:45,65.549361,185.660866,991.084517,96.425
1481, 14:08:45,65.665167,186.306108,994.049716,96.425
1482, 14:08:45,65.701349,186.85026,994.575994,96.425
1483, 14:08:45,65.778409,187.374527,996.53125,96.425
1484, 14:08:45,65.886285,187.965672,998.007102,96.425
1485, 14:08:45,66.071299,188.892874,1002.337358,96.425
1486, 14:08:45,66.223524,189.845762,1005.679688,96.425
1487, 14:08:45,66.366793,190.603693,1007.616477,96.425
1488, 14:08:45,66.429096,191.326113,1008.007812,96.425
1489, 14:08:45,66.243292,190.736506,1006.75142,96.425
1490, 14:08:45,65.221946,186.53705,990.682528,96.425
1491, 14:08:45,64.439631,182.432055,977.609375,96.425
1492, 14:08:45,64.363242,181.111032,973.086648,96.425
1493, 14:08:45,64.364544,180.717685,973.087358,96.425
1494, 14:08:45,64.200205,179.77107,969.365057,96.425
1495, 14:08:45,63.985283,178.557647,966.141335,96.425
1496, 14:08:45,64.036616,178.569602,966.107955,96.425
1497, 14:08:45,64.479206,180.095762,973.037642,96.425
1498, 14:08:45,64.51961,180.528054,974.009233,96.425
1499, 14:08:45,64.420099,180.134825,972.786222,96.425
1500, 14:08:46,64.425545,180.208452,972.026278,96.425
1501, 14:08:46,64.570707,180.775095,974.869318,96.425
1502, 14:08:46,64.778961,181.710464,978.379261,96.425
1503, 14:08:46,64.911222,182.597301,981.933239,96.425
1504, 14:08:46,65.060646,183.416785,983.708097,96.425
1505, 14:08:46,65.2122,184.087831,986.322443,96.425
1506, 14:08:46,65.295967,184.783736,988.355824,96.425
1507, 14:08:46,65.39899,185.389205,990.752841,96.425
1508, 14:08:46,65.489228,186.076113,992.220881,96.425
1509, 14:08:46,65.625671,186.687145,994.68821,96.425
1510, 14:08:46,65.73398,187.367661,996.538352,96.425
1511, 14:08:46,65.923138,188.252841,999.84375,96.425
1512, 14:08:46,66.083097,189.285275,1003.015625,96.425
1513, 14:08:46,66.246962,190.069484,1006.002131,96.425
1514, 14:08:46,66.278093,190.589015,1006.838068,96.425
1515, 14:08:46,65.658026,188.425308,997.367188,96.425
1516, 14:08:46,64.515349,183.447562,979.793324,96.425
1517, 14:08:46,64.050308,180.246094,970.036222,96.425
1518, 14:08:46,64.016454,179.247277,967.449574,96.425
1519, 14:08:46,63.823864,178.211648,964.039773,96.425
1520, 14:08:46,63.514047,176.612689,958.0,96.425
1521, 14:08:46,63.254419,175.273201,954.247159,96.425
1522, 14:08:46,63.322167,175.26669,955.151278,96.425
1523, 14:08:46,63.769926,176.931937,962.284801,96.425
1524, 14:08:46,63.943576,177.751184,964.450284,96.425
1525, 14:08:46,63.837792,177.502959,963.526278,96.425
1526, 14:08:46,63.870068,177.618253,963.567472,96.425
1527, 14:08:46,64.063013,178.31688,966.455256,96.425
1528, 14:08:46,64.262153,179.271307,971.048295,96.425
1529, 14:08:46,64.438644,180.262429,973.887074,96.425
1530, 14:08:47,64.594618,181.155066,976.819602,96.45
1531, 14:08:47,64.730863,181.873935,979.195312,96.45
1532, 14:08:47,64.878275,182.616832,980.43679,96.45
1533, 14:08:47,64.996528,183.426136,983.607955,96.45
1534, 14:08:47,65.134904,184.176018,985.760653,96.45
1535, 14:08:47,65.297348,184.974432,989.008523,96.45
1536, 14:08:47,65.420928,185.885417,990.866477,96.45
1537, 14:08:47,65.60681,186.72242,994.195312,96.45
1538, 14:08:47,65.76602,187.664536,997.387784,96.45
1539, 14:08:47,65.910511,188.552557,1000.590909,96.45
1540, 14:08:47,66.076823,189.403291,1003.03054,96.45
1541, 14:08:47,66.201744,190.232126,1005.645597,96.45
1542, 14:08:47,66.360756,190.965791,1007.695312,96.45
1543, 14:08:47,66.545099,191.843632,1011.587358,96.45
1544, 14:08:47,66.764283,192.874763,1014.473011,96.45
1545, 14:08:47,66.899976,193.59008,1016.764915,96.45
1546, 14:08:47,66.630287,193.015388,1013.012784,96.45
1547, 14:08:47,65.443734,188.516335,997.049716,96.45
1548, 14:08:47,64.635614,184.238755,981.492188,96.45
1549, 14:08:47,64.527975,182.886955,978.756392,96.45
1550, 14:08:47,64.46295,182.220762,976.668324,96.45
1551, 14:08:47,64.24566,180.919744,972.109375,96.45
1552, 14:08:47,63.965633,179.157789,966.804688,96.45
1553, 14:08:47,63.866635,178.24858,963.534091,96.45
1554, 14:08:47,64.119792,179.042614,967.411932,96.45
1555, 14:08:47,64.518269,180.591738,973.479403,96.45
1556, 14:08:47,64.531526,180.915601,974.078835,96.45
1557, 14:08:47,64.473011,180.786458,974.133523,96.45
1558, 14:08:47,64.589094,181.336411,975.754261,96.45
1559, 14:08:47,64.769729,182.079545,979.272727,96.45
1560, 14:08:48,64.95494,183.0509,981.776989,96.45
1561, 14:08:48,65.157513,184.026989,985.360795,96.45
1562, 14:08:48,65.321457,184.832741,987.715199,96.45
1563, 14:08:48,65.449416,185.608191,990.90483,96.45
1564, 14:08:48,65.57631,186.341146,992.09517,96.45
1565, 14:08:48,65.714173,187.182292,994.596591,96.45
1566, 14:08:48,65.87938,188.02687,997.931108,96.45
1567, 14:08:48,65.999527,188.973011,1000.903409,96.45
1568, 14:08:48,66.142756,189.861032,1003.140625,96.45
1569, 14:08:48,66.347972,190.671283,1006.320312,96.45
1570, 14:08:48,66.505524,191.546875,1009.298295,96.45
1571, 14:08:48,66.709596,192.415246,1012.789773,96.45
1572, 14:08:48,66.866359,193.274266,1015.682528,96.45
1573, 14:08:48,67.042061,194.075521,1018.762784,96.45
1574, 14:08:48,67.16422,194.900805,1021.21733,96.45
1575, 14:08:48,67.318616,195.72526,1023.848722,96.45
1576, 14:08:48,67.459478,196.538944,1025.56321,96.45
1577, 14:08:48,67.627131,197.379025,1029.21733,96.45
1578, 14:08:48,67.776357,198.19697,1032.198864,96.45
1579, 14:08:48,67.948153,199.070786,1035.447443,96.45
1580, 14:08:48,68.167535,200.121922,1038.56392,96.45
1581, 14:08:48,68.26018,200.985559,1040.90767,96.45
1582, 14:08:48,68.208886,201.107718,1041.146307,96.45
1583, 14:08:48,67.173651,197.316406,1026.671165,96.45
1584, 14:08:48,66.215554,192.583215,1009.206676,96.45
1585, 14:08:48,66.003393,190.602036,1003.788352,96.45
1586, 14:08:48,65.993213,190.201231,1002.647727,96.45
1587, 14:08:48,65.779198,189.108902,998.934659,96.45
1588, 14:08:48,65.436948,187.284801,992.18608,96.45
1589, 14:08:48,65.233231,185.689749,988.726562,96.45
1590, 14:08:49,65.307765,185.703125,989.221591,96.45
1591, 14:08:49,65.664102,186.930279,994.050426,96.45
1592, 14:08:49,65.71366,187.371567,994.845881,96.45
1593, 14:08:49,65.599905,186.973011,993.568182,96.45
1594, 14:08:49,65.619397,186.957623,993.74858,96.45
1595, 14:08:49,65.744594,187.46437,996.879972,96.45
1596, 14:08:49,65.861979,188.116714,998.776989,96.45
1597, 14:08:49,66.046402,188.917614,1001.508523,96.45
1598, 14:08:49,66.18383,189.687382,1003.317472,96.45
1599, 14:08:49,66.288865,190.383641,1006.068892,96.45
1600, 14:08:49,66.420376,191.063684,1008.223011,96.45
1601, 14:08:49,66.509706,191.513494,1010.430398,96.45
1602, 14:08:49,66.664339,192.188565,1012.566051,96.45
1603, 14:08:49,66.788273,192.904119,1015.143466,96.45
1604, 14:08:49,66.964055,193.623698,1017.824574,96.45
1605, 14:08:49,67.124842,194.34375,1020.607955,96.45
1606, 14:08:49,67.287129,195.195194,1023.00071,96.45
1607, 14:08:49,67.403843,195.931226,1025.871449,96.45
1608, 14:08:49,67.522688,196.637666,1027.888494,96.45
1609, 14:08:49,67.670691,197.323627,1030.137784,96.45
1610, 14:08:49,67.745028,197.959517,1032.18608,96.45
1611, 14:08:49,67.89023,198.684896,1035.28267,96.45
1612, 14:08:49,68.001263,199.513258,1036.431818,96.45
1613, 14:08:49,68.204269,200.330137,1041.051847,96.45
1614, 14:08:49,68.321693,201.104759,1043.415483,96.45
1615, 14:08:49,68.116398,200.658854,1040.762784,96.45
1616, 14:08:49,67.052399,196.429924,1024.5,96.45
1617, 14:08:49,66.207663,191.926491,1009.340199,96.45
1618, 14:08:49,66.013297,190.36991,1003.941051,96.45
1619, 14:08:49,66.000789,190.007102,1003.985795,96.45
1620, 14:08:50,65.785472,188.983783,1000.306108,96.45
1621, 14:08:50,65.527817,187.391217,995.333097,96.45
1622, 14:08:50,65.429096,186.542495,992.618608,96.45
1623, 14:08:50,65.711845,187.445668,998.665483,96.45
1624, 14:08:50,65.890546,188.276752,1000.24858,96.45
1625, 14:08:50,65.745462,187.873698,999.176847,96.45
1626, 14:08:50,65.676768,187.618845,997.153409,96.45
1627, 14:08:50,65.752131,187.820312,998.74858,96.45
1628, 14:08:50,65.934343,188.611269,1001.460227,96.45
1629, 14:08:50,66.101523,189.455137,1004.952415,96.45
1630, 14:08:50,66.245462,190.251539,1007.304688,96.45
1631, 14:08:50,66.379932,190.855705,1009.833097,96.45
1632, 14:08:50,66.483902,191.413826,1011.863636,96.45
1633, 14:08:50,66.583925,191.951113,1013.90554,96.45
1634, 14:08:50,66.663273,192.414062,1014.245739,96.45
1635, 14:08:50,66.82051,193.123935,1018.007812,96.45
1636, 14:08:50,66.953125,193.773674,1020.082386,96.45
1637, 14:08:50,67.099274,194.50947,1022.278409,96.45
1638, 14:08:50,67.244989,195.279001,1024.810369,96.45
1639, 14:08:50,67.373619,196.041312,1027.804688,96.45
1640, 14:08:50,67.499803,196.766454,1030.144176,96.45
1641, 14:08:50,67.638652,197.496922,1033.103693,96.45
1642, 14:08:50,67.77616,198.310014,1035.536222,96.45
1643, 14:08:50,67.839568,199.02107,1036.771307,96.45
1644, 14:08:50,67.662326,198.50071,1033.953125,96.45
1645, 14:08:50,66.583728,194.122869,1018.299716,96.45
1646, 14:08:50,65.712713,189.48473,1002.286222,96.45
1647, 14:08:50,65.421796,187.639915,996.65767,96.45
1648, 14:08:50,65.411932,187.206439,995.821023,96.45
1649, 14:08:50,65.207426,185.904001,992.824574,96.45
1650, 14:08:51,64.885535,184.087003,985.786222,96.45
1651, 14:08:51,64.745818,182.989347,982.555398,96.45
1652, 14:08:51,64.96291,183.672822,986.008523,96.45
1653, 14:08:51,65.291824,184.918561,992.073864,96.45
1654, 14:08:51,65.258641,184.966738,991.965199,96.45
1655, 14:08:51,65.166627,184.702533,990.240767,96.45
1656, 14:08:51,65.241635,184.939867,990.701705,96.45
1657, 14:08:51,65.41714,185.651515,994.349432,96.45
1658, 14:08:51,65.637745,186.574219,997.098722,96.45
1659, 14:08:51,65.810093,187.482836,999.507812,96.45
1660, 14:08:51,65.919981,188.252841,1002.352273,96.45
1661, 14:08:51,66.061198,189.027817,1005.087358,96.45
1662, 14:08:51,66.151318,189.719579,1006.99929,96.45
1663, 14:08:51,66.244279,190.235677,1009.351562,96.45
1664, 14:08:51,66.363755,190.930279,1010.965199,96.45
1665, 14:08:51,66.576389,191.804924,1014.883523,96.45
1666, 14:08:51,66.761285,192.662642,1016.836648,96.45
1667, 14:08:51,66.913668,193.434659,1019.835227,96.45
1668, 14:08:51,67.094894,194.231652,1023.208097,96.45
1669, 14:08:51,67.24345,195.003551,1025.617898,96.45
1670, 14:08:51,67.414062,195.86482,1028.68608,96.45
1671, 14:08:51,67.540956,196.597775,1031.725852,96.45
1672, 14:08:51,67.67077,197.39536,1033.764205,96.45
1673, 14:08:51,67.805792,198.123343,1036.524148,96.45
1674, 14:08:51,67.885101,198.851326,1037.417614,96.45
1675, 14:08:51,68.094105,199.627012,1040.793324,96.45
1676, 14:08:51,68.276555,200.565459,1044.139915,96.45
1677, 14:08:51,68.442195,201.29581,1047.834517,96.45
1678, 14:08:51,68.426926,201.440341,1046.673295,96.45
1679, 14:08:51,67.44113,197.923295,1032.883523,96.45
1680, 14:08:52,66.171362,191.803385,1011.21804,96.7
1681, 14:08:52,65.626973,188.549953,1001.353693,96.7
1682, 14:08:52,65.605508,187.766809,999.203125,96.7
1683, 14:08:52,65.489228,186.667022,996.65554,96.7
1684, 14:08:52,65.101523,184.743016,989.480824,96.7
1685, 14:08:52,64.852391,182.896188,983.729403,96.7
1686, 14:08:52,64.868292,182.404593,982.90483,96.7
1687, 14:08:52,65.230587,183.628788,988.639205,96.7
1688, 14:08:52,65.451941,184.633286,992.169034,96.7
1689, 14:08:52,65.394571,184.53267,991.738636,96.7
1690, 14:08:52,65.378591,184.383404,991.408381,96.7
1691, 14:08:52,65.50071,184.768703,993.038352,96.7
1692, 14:08:52,65.724313,185.750592,995.759233,96.7
1693, 14:08:52,65.93166,186.668087,1000.15625,96.7
1694, 14:08:52,66.12429,187.481771,1002.177557,96.7
1695, 14:08:52,66.253551,188.23982,1004.65483,96.7
1696, 14:08:52,66.395754,188.937737,1007.492898,96.7
1697, 14:08:52,66.530974,189.704664,1010.705256,96.7
1698, 14:08:52,66.671046,190.388139,1012.945312,96.7
1699, 14:08:52,66.842803,191.196496,1015.539773,96.7
1700, 14:08:52,67.004972,192.003078,1018.339489,96.7
1701, 14:08:52,67.17294,192.966264,1021.564631,96.7
1702, 14:08:52,67.343474,193.730705,1024.213778,96.7
1703, 14:08:52,67.510338,194.55232,1027.151989,96.7
1704, 14:08:52,67.70352,195.370975,1030.308239,96.7
1705, 14:08:52,67.829309,196.191525,1032.200284,96.7
1706, 14:08:52,68.00434,196.967093,1035.319602,96.7
1707, 14:08:52,68.129301,197.633641,1037.949574,96.7
1708, 14:08:52,68.292732,198.356889,1039.862926,96.7
1709, 14:08:52,68.459833,199.218513,1043.555398,96.7
1710, 14:08:53,68.671914,200.151634,1046.122869,96.45
1711, 14:08:53,68.825955,200.923414,1049.31321,96.45
1712, 14:08:53,68.468829,199.933949,1044.231534,96.45
1713, 14:08:53,67.224747,194.573864,1025.150568,96.45
1714, 14:08:53,66.273082,189.600024,1008.350142,96.45
1715, 14:08:53,66.081005,187.812145,1003.043324,96.45
1716, 14:08:53,66.101878,187.266809,1002.072443,96.45
1717, 14:08:53,65.853693,185.791667,998.196023,96.45
1718, 14:08:53,65.562658,183.944129,990.96875,96.45
1719, 14:08:53,65.422348,182.838542,988.136364,96.45
1720, 14:08:53,65.690183,183.580966,991.542614,96.45
1721, 14:08:53,66.075955,185.133168,998.12571,96.45
1722, 14:08:53,66.09521,185.34955,997.864347,96.45
1723, 14:08:53,66.079467,185.214252,997.825284,96.45
1724, 14:08:53,66.168403,185.474905,998.894886,96.45
1725, 14:08:53,66.365885,186.311671,1003.185369,96.45
1726, 14:08:53,66.572719,187.26598,1005.627131,96.45
1727, 14:08:53,66.800821,188.283144,1008.985795,96.45
1728, 14:08:53,66.939078,189.143466,1012.159091,96.45
1729, 14:08:53,67.095052,189.948982,1014.932528,96.45
1730, 14:08:53,67.230863,190.577533,1016.894176,96.45
1731, 14:08:53,67.368805,191.392874,1019.419744,96.45
1732, 14:08:53,67.538313,192.147609,1021.692472,96.45
1733, 14:08:53,67.703638,192.968395,1024.895597,96.45
1734, 14:08:53,67.881787,193.846591,1028.048295,96.45
1735, 14:08:53,68.018782,194.746212,1031.454545,96.45
1736, 14:08:53,68.169429,195.71804,1033.058239,96.45
1737, 14:08:53,68.351641,196.534091,1037.267045,96.45
1738, 14:08:53,68.512468,197.408617,1039.301136,96.45
1739, 14:08:53,68.685211,198.1991,1042.521307,96.45
1740, 14:08:54,68.824298,198.963423,1044.632812,96.45
1741, 14:08:54,68.947956,199.645952,1047.264915,96.45
1742, 14:08:54,69.107678,200.429569,1050.060369,96.45
1743, 14:08:54,69.284446,201.252012,1052.884233,96.45
1744, 14:08:54,69.442314,202.064157,1055.211648,96.45
1745, 14:08:54,69.371725,202.128433,1055.225142,96.45
1746, 14:08:54,68.338147,198.131392,1038.930398,96.45
1747, 14:08:54,67.16351,192.505682,1021.321023,96.45
1748, 14:08:54,66.837871,189.788707,1012.175426,96.45
1749, 14:08:54,66.870462,189.346236,1011.983665,96.45
1750, 14:08:54,66.765467,188.500947,1008.34375,96.45
1751, 14:08:54,66.475418,186.822088,1003.884233,96.45
1752, 14:08:54,66.331755,185.704072,999.803977,96.45
1753, 14:08:54,66.543166,186.377131,1004.333807,96.45
1754, 14:08:54,66.872159,187.711648,1008.872159,96.45
1755, 14:08:54,66.840791,187.699455,1008.617188,96.45
1756, 14:08:54,66.797625,187.509825,1007.260653,96.45
1757, 14:08:54,66.871291,187.664536,1008.169034,96.45
1758, 14:08:54,67.056897,188.428741,1010.640625,96.45
1759, 14:08:54,67.237295,189.316525,1015.06392,96.45
1760, 14:08:54,67.434817,190.193182,1017.127841,96.45
1761, 14:08:54,67.618174,191.009825,1019.996449,96.45
1762, 14:08:54,67.73765,191.734257,1022.269176,96.45
1763, 14:08:54,67.819681,192.316525,1024.433239,96.45
1764, 14:08:54,67.921402,192.961174,1026.775568,96.45
1765, 14:08:54,68.046678,193.636245,1028.661222,96.45
1766, 14:08:54,68.239504,194.46804,1031.796875,96.45
1767, 14:08:54,68.335385,195.293087,1033.747159,96.45
1768, 14:08:54,68.532749,196.157907,1037.046875,96.45
1769, 14:08:54,68.677636,196.935843,1040.586648,96.45
1770, 14:08:55,68.815814,197.761364,1042.15625,96.45
1771, 14:08:55,68.942708,198.473958,1045.014205,96.45
1772, 14:08:55,69.102983,199.229403,1046.580966,96.45
1773, 14:08:55,69.214883,199.963305,1049.93608,96.45
1774, 14:08:55,69.345328,200.589962,1051.017045,96.45
1775, 14:08:55,69.477628,201.30741,1054.387074,96.45
1776, 14:08:55,69.61553,202.041667,1056.690341,96.45
1777, 14:08:55,69.811316,202.83215,1059.697443,96.45
1778, 14:08:55,69.959872,203.655185,1061.513494,96.45
1779, 14:08:55,69.979798,204.011837,1062.855114,96.45
1780, 14:08:55,69.131195,200.998698,1050.597301,96.45
1781, 14:08:55,67.728101,194.823509,1028.949574,96.45
1782, 14:08:55,67.109138,190.800426,1016.009943,96.45
1783, 14:08:55,67.047388,189.757221,1013.972301,96.45
1784, 14:08:55,66.977154,189.036103,1010.546165,96.45
1785, 14:08:55,66.669823,187.252367,1005.338068,96.45
1786, 14:08:55,66.357994,185.509115,1000.523438,96.45
1787, 14:08:55,66.32919,184.992306,1000.237926,96.45
1788, 14:08:55,66.710188,186.227628,1004.331676,96.45
1789, 14:08:55,66.910235,187.243963,1008.557528,96.45
1790, 14:08:55,66.849747,187.069129,1006.644886,96.45
1791, 14:08:55,66.830492,186.976326,1007.102273,96.45
1792, 14:08:55,66.932094,187.371567,1008.138494,96.45
1793, 14:08:55,67.180279,188.216501,1011.767756,96.45
1794, 14:08:55,67.411024,189.343395,1015.083097,96.45
1795, 14:08:55,67.544942,190.152817,1018.567472,96.45
1796, 14:08:55,67.695904,190.900687,1020.62571,96.45
1797, 14:08:55,67.856889,191.659683,1023.693892,96.45
1798, 14:08:55,67.910985,192.342803,1025.15625,96.45
1799, 14:08:55,68.092645,193.116004,1027.980114,96.45
1800, 14:08:56,68.251263,193.850852,1030.545455,96.45
1801, 14:08:56,68.413234,194.638849,1033.452415,96.45
1802, 14:08:56,68.574337,195.4375,1035.15625,96.45
1803, 14:08:56,68.704664,196.25651,1038.377131,96.45
1804, 14:08:56,68.853772,197.122396,1040.683239,96.45
1805, 14:08:56,68.98982,197.950994,1043.973011,96.45
1806, 14:08:56,69.125592,198.769295,1046.803267,96.45
1807, 14:08:56,69.240175,199.476207,1048.942472,96.45
1808, 14:08:56,69.397372,200.217685,1050.902699,96.45
1809, 14:08:56,69.588265,201.116122,1053.835938,96.45
1810, 14:08:56,69.771938,202.024148,1057.286932,96.45
1811, 14:08:56,69.722656,202.219105,1056.908381,96.45
1812, 14:08:56,68.752486,198.64098,1042.865767,96.45
1813, 14:08:56,67.445352,192.701113,1022.766335,96.45
1814, 14:08:56,66.927162,189.13518,1011.822443,96.45
1815, 14:08:56,66.88226,188.175189,1009.127841,96.45
1816, 14:08:56,66.720092,187.165009,1005.541193,96.45
1817, 14:08:56,66.354956,185.315814,999.553977,96.45
1818, 14:08:56,66.051965,183.558357,993.691051,96.45
1819, 14:08:56,66.075915,183.193655,993.488636,96.45
1820, 14:08:56,66.462358,184.608665,999.776989,96.45
1821, 14:08:56,66.695312,185.659801,1003.586648,96.45
1822, 14:08:56,66.640152,185.576231,1002.414773,96.45
1823, 14:08:56,66.645399,185.539891,1003.108665,96.45
1824, 14:08:56,66.768663,185.996804,1004.68821,96.45
1825, 14:08:56,67.013771,186.941406,1008.50071,96.45
1826, 14:08:56,67.241241,188.003078,1010.819602,96.45
1827, 14:08:56,67.423808,188.929569,1014.867188,96.45
1828, 14:08:56,67.57485,189.726918,1016.992188,96.45
1829, 14:08:56,67.656132,190.422467,1018.225142,96.45
1830, 14:08:57,67.838818,191.164181,1021.397017,96.45
1831, 14:08:57,67.993805,191.924598,1024.510653,96.45
1832, 14:08:57,68.147057,192.783499,1027.195312,96.45
1833, 14:08:57,68.282039,193.539773,1029.3125,96.45
1834, 14:08:57,68.419113,194.378078,1032.080966,96.45
1835, 14:08:57,68.623303,195.249645,1035.549006,96.45
1836, 14:08:57,68.775805,196.136127,1037.916193,96.45
1837, 14:08:57,68.949298,196.913707,1041.337358,96.45
1838, 14:08:57,69.088581,197.770952,1043.409801,96.45
1839, 14:08:57,69.201547,198.649148,1046.704545,96.45
1840, 14:08:57,69.348209,199.445668,1048.534801,96.45
1841, 14:08:57,69.435409,200.107363,1050.942472,96.45
1842, 14:08:57,69.600418,200.834399,1053.370028,96.45
1843, 14:08:57,69.822917,201.870739,1057.130682,96.45
1844, 14:08:57,69.964134,202.694957,1058.769176,96.45
1845, 14:08:57,69.85247,202.484967,1057.699574,96.45
1846, 14:08:57,68.648872,198.087713,1040.560369,96.45
1847, 14:08:57,67.496804,192.392401,1021.669744,96.45
1848, 14:08:57,67.162129,189.78563,1012.324574,96.45
1849, 14:08:57,67.20202,189.153409,1012.590909,96.45
1850, 14:08:57,67.003985,187.988755,1007.350142,96.45
1851, 14:08:57,66.630366,186.00142,1000.715909,96.45
1852, 14:08:57,66.40917,184.517282,996.558239,96.45
1853, 14:08:57,66.505287,184.541903,998.90483,96.45
1854, 14:08:57,66.877407,186.031842,1003.918324,96.45
1855, 14:08:57,66.989623,186.589607,1005.068892,96.45
1856, 14:08:57,66.928307,186.352154,1003.834517,96.45
1857, 14:08:57,66.949377,186.42152,1004.671165,96.45
1858, 14:08:57,67.104088,187.043324,1006.830966,96.45
1859, 14:08:57,67.313881,187.841264,1011.181108,96.45
1860, 14:08:58,67.414497,188.699929,1011.62571,96.7
1861, 14:08:58,67.624211,189.457386,1015.303977,96.7
1862, 14:08:58,67.765073,190.242188,1017.399148,96.7
1863, 14:08:58,67.852115,190.937027,1020.278409,96.7
1864, 14:08:58,67.987966,191.604522,1021.652699,96.7
1865, 14:08:58,68.087279,192.237689,1024.125,96.7
1866, 14:08:58,68.218553,192.934541,1026.252131,96.7
1867, 14:08:58,68.361111,193.74858,1028.857955,96.7
1868, 14:08:58,68.547625,194.542495,1031.692472,96.7
1869, 14:08:58,68.684225,195.3183,1034.676847,96.7
1870, 14:08:58,68.813408,196.115412,1036.192472,96.7
1871, 14:08:58,68.949968,196.868845,1039.661932,96.7
1872, 14:08:58,69.066051,197.60535,1041.390625,96.7
1873, 14:08:58,69.171007,198.360559,1043.56392,96.7
1874, 14:08:58,69.268821,199.068774,1046.026278,96.7
1875, 14:08:58,69.400608,199.828717,1048.571733,96.7
1876, 14:08:58,69.545612,200.586648,1050.994318,96.7
1877, 14:08:58,69.715633,201.475497,1053.878551,96.7
1878, 14:08:58,69.748106,201.898674,1054.795455,96.7
1879, 14:08:58,68.886955,198.925545,1043.237926,96.7
1880, 14:08:58,67.619752,193.178385,1022.629972,96.7
1881, 14:08:58,67.048611,189.66572,1011.221591,96.7
1882, 14:08:58,67.052754,188.960346,1009.026278,96.7
1883, 14:08:58,67.005721,188.427202,1008.193892,96.7
1884, 14:08:58,66.731495,186.926491,1002.598722,96.7
1885, 14:08:58,66.486348,185.515862,998.410511,96.7
1886, 14:08:58,66.575915,185.609375,999.630682,96.7
1887, 14:08:58,66.943537,186.964134,1005.602983,96.7
1888, 14:08:58,66.925939,187.060014,1005.121449,96.7
1889, 14:08:58,66.798059,186.558949,1003.836648,96.7
1890, 14:08:59,66.834044,186.568892,1003.382102,96.7
1891, 14:08:59,66.918403,187.095644,1004.803977,96.7
1892, 14:08:59,67.121725,187.920099,1008.029119,96.7
1893, 14:08:59,67.272057,188.655185,1010.916903,96.7
1894, 14:08:59,67.370344,189.352036,1012.65767,96.7
1895, 14:08:59,67.532315,190.213423,1016.243608,96.7
1896, 14:08:59,67.639481,190.72242,1017.476562,96.7
1897, 14:08:59,67.717606,191.261245,1019.337358,96.7
1898, 14:08:59,67.823272,191.911577,1021.517756,96.7
1899, 14:08:59,67.961214,192.520952,1023.977983,96.7
1900, 14:08:59,68.075245,193.253196,1025.340199,96.7
1901, 14:08:59,68.21003,193.978101,1028.956676,96.7
1902, 14:08:59,68.333333,194.713542,1030.889205,96.7
1903, 14:08:59,68.514165,195.555753,1033.715199,96.7
1904, 14:08:59,68.627012,196.443063,1036.24929,96.7
1905, 14:08:59,68.74053,197.242424,1038.363636,96.7
1906, 14:08:59,68.771465,197.672822,1039.409091,96.7
1907, 14:08:59,68.147806,195.461884,1030.325284,96.7
1908, 14:08:59,66.900529,190.073272,1010.882812,96.7
1909, 14:08:59,66.257418,186.220644,998.900568,96.7
1910, 14:08:59,66.177123,185.120384,995.81321,96.7
1911, 14:08:59,66.087161,184.419626,994.421165,96.7
1912, 14:08:59,65.794429,182.981771,988.237216,96.7
1913, 14:08:59,65.503038,181.295099,983.577415,96.7
1914, 14:08:59,65.52395,180.96437,983.112926,96.7
1915, 14:08:59,65.892637,182.361624,989.110085,96.7
1916, 14:08:59,66.01527,183.076586,990.635653,96.7
1917, 14:08:59,65.940814,182.899621,990.440341,96.7
1918, 14:08:59,65.946457,182.863045,990.379972,96.7
1919, 14:08:59,66.069721,183.361624,992.658381,96.7
1920, 14:09:00,66.288037,184.349432,995.130682,96.675
1921, 14:09:00,66.488557,185.359138,999.348011,96.675
1922, 14:09:00,66.613242,186.153646,1000.890625,96.675
1923, 14:09:00,66.780461,186.872159,1004.514205,96.675
1924, 14:09:00,66.909209,187.638613,1005.706676,96.675
1925, 14:09:00,67.01239,188.18821,1008.242898,96.675
1926, 14:09:00,67.086727,188.85535,1010.007102,96.675
1927, 14:09:00,67.262508,189.688565,1013.455256,96.675
1928, 14:09:00,67.394176,190.472301,1015.28267,96.675
1929, 14:09:00,67.575639,191.364228,1018.543324,96.675
1930, 14:09:00,67.708886,192.170218,1021.007102,96.675
1931, 14:09:00,67.830374,192.902107,1023.932528,96.675
1932, 14:09:00,67.977825,193.670691,1026.265625,96.675
1933, 14:09:00,68.133089,194.479285,1029.960938,96.675
1934, 14:09:00,68.302399,195.533144,1032.758523,96.675
1935, 14:09:00,68.378354,196.226444,1035.122869,96.675
1936, 14:09:00,67.995384,195.294389,1029.28054,96.675
1937, 14:09:00,66.660117,189.864347,1010.137784,96.675
1938, 14:09:00,65.703283,184.675663,992.204545,96.675
1939, 14:09:00,65.458925,182.681226,986.379972,96.675
1940, 14:09:00,65.369476,181.870265,984.252841,96.675
1941, 14:09:00,65.049755,180.252012,978.710938,96.675
1942, 14:09:00,64.679885,178.166548,971.027699,96.675
1943, 14:09:00,64.502328,177.03492,968.056108,96.675
1944, 14:09:00,64.732481,177.609848,971.869318,96.675
1945, 14:09:00,65.129104,179.312027,978.911932,96.675
1946, 14:09:00,65.173256,179.618726,978.825994,96.675
1947, 14:09:00,65.087003,179.413471,977.852983,96.675
1948, 14:09:00,65.153015,179.71946,978.910511,96.675
1949, 14:09:00,65.346749,180.52036,982.357955,96.675
1950, 14:09:01,65.571615,181.56617,985.496449,96.7
1951, 14:09:01,65.723011,182.508523,988.931818,96.7
1952, 14:09:01,65.909091,183.350852,991.676136,96.7
1953, 14:09:01,65.994634,184.15483,993.639205,96.7
1954, 14:09:01,66.182686,184.836411,996.606534,96.7
1955, 14:09:01,66.306424,185.550426,999.274148,96.7
1956, 14:09:01,66.471354,186.435369,1001.134943,96.7
1957, 14:09:01,66.611742,187.212121,1004.568182,96.7
1958, 14:09:01,66.755919,188.075994,1007.316761,96.7
1959, 14:09:01,66.90771,189.006274,1009.884233,96.7
1960, 14:09:01,67.05232,189.835464,1012.867898,96.7
1961, 14:09:01,67.180556,190.649148,1015.125,96.7
1962, 14:09:01,67.350142,191.465199,1018.009943,96.7
1963, 14:09:01,67.502328,192.409446,1020.93679,96.7
1964, 14:09:01,67.622435,193.106416,1023.959517,96.7
1965, 14:09:01,67.709399,193.854995,1025.868608,96.7
1966, 14:09:01,67.761758,194.507812,1026.583807,96.7
1967, 14:09:01,67.990057,195.511364,1030.846591,96.7
1968, 14:09:01,68.191643,196.461766,1033.90696,96.7
1969, 14:09:01,68.241951,197.015625,1035.965909,96.7
1970, 14:09:01,67.4564,194.551018,1024.897017,96.7
1971, 14:09:01,65.946851,188.002486,1001.551847,96.7
1972, 14:09:01,65.115254,183.494437,986.242188,96.7
1973, 14:09:01,65.014323,182.002249,982.81179,96.7
1974, 14:09:01,64.906092,181.038352,979.869318,96.7
1975, 14:09:01,64.512192,179.101444,973.321733,96.7
1976, 14:09:01,64.188289,177.060133,966.517045,96.7
1977, 14:09:01,64.104403,176.221354,964.356534,96.7
1978, 14:09:01,64.451744,177.344342,969.696733,96.7
1979, 14:09:01,64.780461,178.836174,975.142045,96.7
1980, 14:09:02,64.732047,178.873224,974.588778,96.7
1981, 14:09:02,64.693576,178.755919,974.18608,96.7
1982, 14:09:02,64.796046,179.151397,975.445312,96.7
1983, 14:09:02,65.013889,180.007102,979.678977,96.7
1984, 14:09:02,65.178385,181.0058,981.912642,96.7
1985, 14:09:02,65.38514,181.918679,985.833097,96.7
1986, 14:09:02,65.547191,182.661458,988.59375,96.7
1987, 14:09:02,65.697838,183.507812,991.987216,96.7
1988, 14:09:02,65.810922,184.312973,993.502841,96.7
1989, 14:09:02,65.914339,185.045573,996.046165,96.7
1990, 14:09:02,66.061356,185.750355,997.678267,96.7
1991, 14:09:02,66.237098,186.533736,1000.887074,96.7
1992, 14:09:02,66.403212,187.379616,1003.933949,96.7
1993, 14:09:02,66.538471,188.251302,1006.65554,96.7
1994, 14:09:02,66.70786,189.157197,1008.738636,96.7
1995, 14:09:02,66.842172,189.95928,1011.741477,96.7
1996, 14:09:02,66.956005,190.715554,1013.497869,96.7
1997, 14:09:02,67.098564,191.544271,1017.240057,96.7
1998, 14:09:02,67.20419,192.378196,1019.40554,96.7
1999, 14:09:02,67.326271,193.198035,1022.012074,96.7
2000, 14:09:02,67.449771,193.797704,1023.800426,96.7
2001, 14:09:02,67.597656,194.599787,1027.226562,96.7
2002, 14:09:02,67.802004,195.513968,1029.56392,96.7
2003, 14:09:02,67.944484,196.43099,1032.753551,96.7
2004, 14:09:02,67.967527,196.783262,1033.463778,96.7
2005, 14:09:02,66.935093,193.309067,1019.18679,96.7
2006, 14:09:02,65.441051,186.74929,995.455966,96.7
2007, 14:09:02,64.779317,182.788234,983.331676,96.7
2008, 14:09:02,64.776042,181.796875,980.434659,96.7
2009, 14:09:02,64.662879,180.922822,978.096591,96.7
2010, 14:09:03,64.35176,179.213423,971.502131,96.45
2011, 14:09:03,64.063131,177.642045,967.477273,96.45
2012, 14:09:03,64.144413,177.636837,967.767045,96.45
2013, 14:09:03,64.592566,179.226089,975.680398,96.45
2014, 14:09:03,64.648516,179.603693,975.832386,96.45
2015, 14:09:03,64.469658,179.138139,973.635653,96.45
2016, 14:09:03,64.515664,179.209872,973.554688,96.45
2017, 14:09:03,64.688092,179.763139,976.547585,96.45
2018, 14:09:03,64.907986,180.643939,980.008523,96.45
2019, 14:09:03,65.120226,181.624408,983.331676,96.45
2020, 14:09:03,65.291351,182.58286,986.159091,96.45
2021, 14:09:03,65.43316,183.386127,988.714489,96.45
2022, 14:09:03,65.556345,184.039773,991.684659,96.45
2023, 14:09:03,65.602983,184.539062,992.649148,96.45
2024, 14:09:03,65.732836,185.171993,994.256392,96.45
2025, 14:09:03,65.892835,185.952652,998.085227,96.45
2026, 14:09:03,66.041785,186.791548,1000.232244,96.45
2027, 14:09:03,66.195352,187.62062,1003.24929,96.45
2028, 14:09:03,66.338621,188.43679,1004.947443,96.45
2029, 14:09:03,66.497909,189.293916,1008.286222,96.45
2030, 14:09:03,66.655461,190.242424,1011.019886,96.45
2031, 14:09:03,66.786537,191.004972,1014.274148,96.45
2032, 14:09:03,66.717842,191.23544,1012.898438,96.45
2033, 14:09:03,65.706439,187.596591,998.482955,96.45
2034, 14:09:03,64.446536,181.760062,978.733665,96.45
2035, 14:09:03,63.983467,178.604759,969.324574,96.45
2036, 14:09:03,63.922783,177.746567,966.192472,96.45
2037, 14:09:03,63.786695,176.946259,963.794034,96.45
2038, 14:09:03,63.498619,175.399266,957.807528,96.45
2039, 14:09:03,63.33941,174.227983,954.305398,96.45
2040, 14:09:04,63.534683,174.862571,958.237926,96.45
2041, 14:09:04,63.967606,176.527817,965.40554,96.45
2042, 14:09:04,63.988518,176.886009,966.083097,96.45
2043, 14:09:04,63.908657,176.537997,964.245028,96.45
2044, 14:09:04,63.955453,176.804332,965.084517,96.45
2045, 14:09:04,64.124132,177.59446,968.509943,96.45
2046, 14:09:04,64.380563,178.653527,971.330256,96.45
2047, 14:09:04,64.615096,179.692353,976.25071,96.45
2048, 14:09:04,64.817906,180.591974,979.208097,96.45
2049, 14:09:04,64.968908,181.379261,982.102273,96.45
2050, 14:09:04,65.10464,182.152936,983.732955,96.45
2051, 14:09:04,65.219263,182.874171,988.120028,96.45
2052, 14:09:04,65.370699,183.603575,988.899858,96.45
2053, 14:09:04,65.502604,184.35535,991.526989,96.45
2054, 14:09:04,65.658104,185.326586,994.209517,96.45
2055, 14:09:04,65.850063,186.184659,998.008523,96.45
2056, 14:09:04,66.018979,187.169626,1000.242188,96.45
2057, 14:09:04,66.184225,188.022372,1004.335938,96.45
2058, 14:09:04,66.30887,188.881629,1005.764205,96.45
2059, 14:09:04,66.428662,189.728693,1008.732955,96.45
2060, 14:09:04,66.561711,190.579545,1011.309659,96.45
2061, 14:09:04,66.700166,191.373224,1014.435369,96.45
2062, 14:09:04,66.859375,192.115057,1016.761364,96.45
2063, 14:09:04,67.00292,192.884233,1019.674716,96.45
2064, 14:09:04,67.216777,193.74929,1022.879261,96.45
2065, 14:09:04,67.369279,194.667969,1025.888494,96.45
2066, 14:09:04,67.294626,194.746094,1024.877131,96.45
2067, 14:09:04,65.991675,190.306937,1006.602983,96.45
2068, 14:09:04,64.448666,183.21295,982.56179,96.45
2069, 14:09:04,63.872593,179.524029,970.587358,96.45
2070, 14:09:05,63.849905,178.496212,968.164773,96.45
2071, 14:09:05,63.637153,177.222538,964.076705,96.45
2072, 14:09:05,63.190538,174.991122,955.506392,96.45
2073, 14:09:05,62.858033,173.092566,949.62358,96.45
2074, 14:09:05,62.872554,172.662642,948.333807,96.45
2075, 14:09:05,63.320825,174.1817,955.604403,96.45
2076, 14:09:05,63.597972,175.38009,959.712358,96.45
2077, 14:09:05,63.479324,175.284564,958.579545,96.45
2078, 14:09:05,63.509667,175.295573,958.418324,96.45
2079, 14:09:05,63.659288,175.832031,961.102983,96.45
2080, 14:09:05,63.886561,176.851918,964.600142,96.45
2081, 14:09:05,64.131234,177.935369,969.850852,96.45
2082, 14:09:05,64.351365,178.841974,972.733665,96.45
2083, 14:09:05,64.502367,179.652936,975.957386,96.45
2084, 14:09:05,64.66355,180.525687,978.267756,96.45
2085, 14:09:05,64.789378,181.229877,980.848011,96.45
2086, 14:09:05,64.927281,182.030421,982.668324,96.45
2087, 14:09:05,65.081795,182.793679,986.25071,96.45
2088, 14:09:05,65.24274,183.67661,988.636364,96.45
2089, 14:09:05,65.415562,184.556818,992.465909,96.45
2090, 14:09:05,65.593316,185.487334,994.955256,96.45
2091, 14:09:05,65.737729,186.370857,998.185369,96.45
2092, 14:09:05,65.892677,187.214962,1000.153409,96.45
2093, 14:09:05,66.043561,188.05161,1003.428977,96.45
2094, 14:09:05,66.177991,188.946851,1006.243608,96.45
2095, 14:09:05,66.329506,189.846946,1008.723722,96.45
2096, 14:09:05,66.466225,190.660985,1011.298295,96.45
2097, 14:09:05,66.640625,191.589489,1014.894886,96.45
2098, 14:09:05,66.790286,192.261009,1016.912642,96.45
2099, 14:09:05,66.916667,193.01089,1020.073864,96.45
2100, 14:09:06,67.104088,193.821259,1022.021307,96.45
2101, 14:09:06,67.316998,194.835938,1026.330966,96.45
2102, 14:09:06,67.518348,195.957031,1029.176847,96.45
2103, 14:09:06,67.501776,196.216027,1030.25071,96.45
2104, 14:09:06,66.15191,191.645123,1011.259943,96.45
2105, 14:09:06,64.548414,184.463897,985.990767,96.45
2106, 14:09:06,63.914141,180.491477,972.602273,96.45
2107, 14:09:06,63.895991,179.485795,971.085227,96.45
2108, 14:09:06,63.732086,178.093987,966.132102,96.45
2109, 14:09:06,63.330335,175.952652,958.599432,96.45
2110, 14:09:06,62.962476,174.006747,951.713778,96.45
2111, 14:09:06,62.968119,173.504735,950.855114,96.45
2112, 14:09:06,63.403251,174.965436,957.340909,96.45
2113, 14:09:06,63.683239,176.15483,962.801136,96.45
2114, 14:09:06,63.621528,176.005208,960.667614,96.45
2115, 14:09:06,63.610559,175.924006,960.691761,96.45
2116, 14:09:06,63.706558,176.316643,962.533381,96.45
2117, 14:09:06,63.91426,177.193537,966.022017,96.45
2118, 14:09:06,64.128551,178.129025,969.177557,96.45
2119, 14:09:06,64.338897,179.067353,973.443892,96.45
2120, 14:09:06,64.553977,180.060133,976.051136,96.45
2121, 14:09:06,64.687658,180.909091,979.315341,96.45
2122, 14:09:06,64.802202,181.647135,981.166903,96.45
2123, 14:09:06,64.916982,182.308239,983.877841,96.45
2124, 14:09:06,65.057805,183.089134,986.307528,96.45
2125, 14:09:06,65.22601,183.97017,989.752841,96.45
2126, 14:09:06,65.383957,184.945904,991.138494,96.45
2127, 14:09:06,65.538944,185.799598,994.828835,96.45
2128, 14:09:06,65.705492,186.651989,998.161932,96.45
2129, 14:09:06,65.887784,187.499053,1001.338068,96.45
2130, 14:09:07,65.991359,188.283262,1002.560369,96.45
2131, 14:09:07,66.105429,189.047348,1005.872159,96.45
2132, 14:09:07,66.265112,190.006037,1008.158381,96.45
2133, 14:09:07,66.421836,190.828007,1011.797585,96.45
2134, 14:09:07,66.597893,191.739702,1014.492188,96.45
2135, 14:09:07,66.633681,192.016098,1015.332386,96.45
2136, 14:09:07,65.472932,188.205729,999.231534,96.45
2137, 14:09:07,64.085543,181.69839,977.309659,96.45
2138, 14:09:07,63.496015,178.263613,964.476562,96.45
2139, 14:09:07,63.495975,177.256392,962.947443,96.45
2140, 14:09:07,63.433554,176.608902,960.201705,96.45
2141, 14:09:07,63.15258,175.146188,955.831676,96.45
2142, 14:09:07,62.946102,173.871922,951.683239,96.45
2143, 14:09:07,63.179056,174.540483,954.853693,96.45
2144, 14:09:07,63.589804,176.145833,961.196023,96.45
2145, 14:09:07,63.56179,176.29285,961.615057,96.45
2146, 14:09:07,63.467172,175.904356,959.786932,96.45
2147, 14:09:07,63.507812,176.075994,960.586648,96.45
2148, 14:09:07,63.689552,176.802083,963.204545,96.45
2149, 14:09:07,63.953007,177.812618,967.460938,96.45
2150, 14:09:07,64.161695,178.825047,971.308239,96.45
2151, 14:09:07,64.31467,179.702533,974.87429,96.45
2152, 14:09:07,64.466146,180.486506,977.191761,96.45
2153, 14:09:07,64.554964,181.164418,979.557528,96.45
2154, 14:09:07,64.697877,181.867306,981.459517,96.45
2155, 14:09:07,64.788984,182.495739,984.073864,96.45
2156, 14:09:07,64.97309,183.227036,986.495739,96.45
2157, 14:09:07,65.086884,183.924953,989.25142,96.45
2158, 14:09:07,65.229088,184.940578,991.038352,96.45
2159, 14:09:07,65.437184,186.035985,994.735795,96.45
2160, 14:09:08,65.615136,186.897017,997.794034,96.45
2161, 14:09:08,65.732086,187.61482,1001.049716,96.45
2162, 14:09:08,65.420849,186.851089,996.143466,96.45
2163, 14:09:08,64.040799,181.638021,976.268466,96.45
2164, 14:09:08,62.969736,176.303149,957.151278,96.45
2165, 14:09:08,62.680516,174.071851,950.661222,96.45
2166, 14:09:08,62.634549,173.345407,948.754261,96.45
2167, 14:09:08,62.401989,172.017045,944.105114,96.45
2168, 14:09:08,62.100892,170.401634,938.040483,96.45
2169, 14:09:08,61.965396,169.50367,935.911222,96.45
2170, 14:09:08,62.309383,170.585346,940.247869,96.45
2171, 14:09:08,62.705058,172.206084,947.537642,96.45
2172, 14:09:08,62.678307,172.334635,947.033381,96.45
2173, 14:09:08,62.62212,172.2442,946.735085,96.45
2174, 14:09:08,62.762192,172.64974,948.230824,96.45
2175, 14:09:08,62.975931,173.614347,953.223011,96.45
2176, 14:09:08,63.250395,174.788589,957.433239,96.45
2177, 14:09:08,63.450363,175.772964,960.291193,96.45
2178, 14:09:08,63.622396,176.714725,962.856534,96.45
2179, 14:09:08,63.749605,177.448627,966.62642,96.45
2180, 14:09:08,63.88881,178.205256,968.370739,96.45
2181, 14:09:08,64.030737,178.99562,971.470881,96.45
2182, 14:09:08,64.171599,179.78705,974.239347,96.45
2183, 14:09:08,64.318537,180.57919,976.847301,96.45
2184, 14:09:08,64.504222,181.510298,979.678267,96.45
2185, 14:09:08,64.669074,182.413944,983.193892,96.45
2186, 14:09:08,64.806779,183.339844,986.016335,96.45
2187, 14:09:08,64.979601,184.239938,990.073153,96.45
2188, 14:09:08,65.158104,185.169389,992.183949,96.45
2189, 14:09:08,65.312539,186.021899,995.540483,96.45
2190, 14:09:09,65.438999,186.838305,997.762784,96.45
2191, 14:09:09,65.583767,187.671757,1000.916903,96.45
2192, 14:09:09,65.734848,188.38447,1002.948864,96.45
2193, 14:09:09,65.895991,189.247159,1005.795455,96.45
2194, 14:09:09,66.090554,190.226207,1008.942472,96.45
2195, 14:09:09,66.27833,191.137074,1012.31392,96.45
2196, 14:09:09,65.862255,190.074455,1006.412642,96.45
2197, 14:09:09,64.139165,183.527817,982.013494,96.45
2198, 14:09:09,62.841856,177.369792,960.022727,96.45
2199, 14:09:09,62.587555,174.949692,952.666903,96.45
2200, 14:09:09,62.520636,174.011719,949.848722,96.45
2201, 14:09:09,62.193576,172.257339,944.214489,96.45
2202, 14:09:09,61.808712,170.185133,935.573864,96.45
2203, 14:09:09,61.544547,168.767637,932.304688,96.45
2204, 14:09:09,61.787247,169.089015,934.661932,96.45
2205, 14:09:09,62.279553,170.903054,942.75071,96.45
2206, 14:09:09,62.402423,171.649976,944.192472,96.45
2207, 14:09:09,62.356376,171.488163,943.613636,96.45
2208, 14:09:09,62.400292,171.785156,944.446733,96.45
2209, 14:09:09,62.621607,172.567945,947.87642,96.45
2210, 14:09:09,62.844736,173.560724,951.821733,96.45
2211, 14:09:09,63.08215,174.654593,955.899148,96.45
2212, 14:09:09,63.240807,175.52545,958.729403,96.45
2213, 14:09:09,63.413037,176.441761,961.795455,96.45
2214, 14:09:09,63.590672,177.190104,964.615057,96.45
2215, 14:09:09,63.717566,177.995502,967.541193,96.45
2216, 14:09:09,63.908065,178.882339,970.382102,96.45
2217, 14:09:09,64.034525,179.698745,973.365767,96.45
2218, 14:09:09,64.170376,180.612926,976.424716,96.45
2219, 14:09:09,64.388613,181.578717,980.296165,96.45
2220, 14:09:10,64.566209,182.522491,982.941761,96.45
2221, 14:09:10,64.726562,183.426373,986.240057,96.45
2222, 14:09:10,64.926926,184.329545,990.090909,96.45
2223, 14:09:10,65.120384,185.259351,993.073153,96.45
2224, 14:09:10,65.242069,186.185488,995.851562,96.45
2225, 14:09:10,65.371686,187.088068,998.485795,96.45
2226, 14:09:10,65.579585,187.96224,1001.421165,96.45
