frame_index,timestamp,R,G,B,average_SpO2
0, 09:25:02,34.849392,260.498935,827.289062,97.6
1, 09:25:02,34.849235,260.625829,827.652699,97.6
2, 09:25:02,34.852233,260.602628,828.604403,97.6
3, 09:25:02,34.888297,260.507221,829.597301,97.6
4, 09:25:02,34.941367,260.450521,830.583807,97.6
5, 09:25:02,34.966383,260.442235,828.559659,97.6
6, 09:25:02,34.957229,260.358902,828.951705,97.6
7, 09:25:02,34.973524,260.383641,828.773438,97.6
8, 09:25:02,34.998185,260.433949,829.910511,97.6
9, 09:25:02,35.007378,260.587003,829.635653,97.6
10, 09:25:02,35.009115,260.62062,829.550426,97.6
11, 09:25:02,35.010496,260.753078,829.680398,97.6
12, 09:25:02,35.007102,260.82197,829.676136,97.6
13, 09:25:02,34.996449,260.861979,829.558239,97.6
14, 09:25:02,34.998698,260.997514,830.223722,97.6
15, 09:25:02,34.989504,261.090199,830.524148,97.6
16, 09:25:02,34.984848,261.198864,830.204545,97.6
17, 09:25:02,34.977943,261.271899,830.466619,97.6
18, 09:25:02,34.964765,261.405658,830.698153,97.6
19, 09:25:02,35.008878,261.61849,831.537642,97.6
20, 09:25:02,34.996133,261.838778,832.151989,97.6
21, 09:25:02,34.989347,261.994081,832.575284,97.6
22, 09:25:02,34.951428,262.030895,831.997869,97.6
23, 09:25:02,34.820234,261.762784,830.40625,97.6
24, 09:25:02,34.736664,261.324574,828.765625,97.6
25, 09:25:02,34.767874,261.177202,829.415483,97.6
26, 09:25:02,34.824692,261.127486,829.327415,97.6
27, 09:25:02,34.851641,261.145833,829.346591,97.6
28, 09:25:02,34.68024,259.768466,822.292614,97.6
29, 09:25:02,34.694326,259.704664,822.330256,97.6
30, 09:25:03,34.696417,259.696259,822.589489,97.65
31, 09:25:03,34.706045,259.601089,821.615057,97.65
32, 09:25:03,34.71512,259.590909,821.786932,97.65
33, 09:25:03,34.736269,259.5625,821.411932,97.65
34, 09:25:03,34.722064,259.5,821.426136,97.65
35, 09:25:03,34.747159,259.58286,821.880682,97.65
36, 09:25:03,34.773635,259.669389,822.337358,97.65
37, 09:25:03,34.794626,259.686435,822.627131,97.65
38, 09:25:03,34.810369,259.798532,822.524148,97.65
39, 09:25:03,34.81392,259.906723,822.559659,97.65
40, 09:25:03,34.786261,259.945431,822.797585,97.65
41, 09:25:03,34.787129,259.962713,822.986506,97.65
42, 09:25:03,34.790878,260.183712,823.875,97.65
43, 09:25:03,34.795573,260.329901,823.885653,97.65
44, 09:25:03,34.795967,260.425781,824.514915,97.65
45, 09:25:03,34.780777,260.535038,824.204545,97.65
46, 09:25:03,34.802951,260.729403,824.964489,97.65
47, 09:25:03,34.792495,260.882694,825.307528,97.65
48, 09:25:03,34.789575,261.00651,825.169744,97.65
49, 09:25:03,34.778409,261.191288,826.053977,97.65
50, 09:25:03,34.766454,261.35902,826.014915,97.65
51, 09:25:03,34.762942,261.453125,826.241477,97.65
52, 09:25:03,34.681305,261.437382,825.928267,97.65
53, 09:25:03,34.546046,260.933594,823.399858,97.65
54, 09:25:03,34.515783,260.76089,822.818182,97.65
55, 09:25:03,34.57485,260.758641,823.665483,97.65
56, 09:25:03,34.610835,260.771425,823.355824,97.65
57, 09:25:03,34.639441,260.835464,824.663352,97.65
58, 09:25:03,34.631747,260.813329,824.252131,97.65
59, 09:25:03,34.635811,260.839725,824.177557,97.65
60, 09:25:04,34.652423,260.849313,824.183949,97.6
61, 09:25:04,34.632694,260.81759,823.791903,97.6
62, 09:25:04,34.599669,260.731771,822.99858,97.6
63, 09:25:04,34.624211,260.694129,823.491477,97.6
64, 09:25:04,34.644295,260.739228,823.62571,97.6
65, 09:25:04,34.658933,260.831913,824.352273,97.6
66, 09:25:04,34.687066,260.903054,823.639915,97.6
67, 09:25:04,34.684067,260.949929,824.102983,97.6
68, 09:25:04,34.673927,261.069129,823.838068,97.6
69, 09:25:04,34.668995,261.114938,825.019176,97.6
70, 09:25:04,34.683475,261.288116,824.75142,97.6
71, 09:25:04,34.661616,261.367424,825.576705,97.6
72, 09:25:04,34.677912,261.50438,825.835938,97.6
73, 09:25:04,34.667929,261.609848,825.693182,97.6
74, 09:25:04,34.647491,261.587831,825.078125,97.6
75, 09:25:04,34.646978,261.704664,826.097301,97.6
76, 09:25:04,34.628354,261.768111,825.952415,97.6
77, 09:25:04,34.633799,261.90187,826.49929,97.6
78, 09:25:04,34.647806,262.183949,827.143466,97.6
79, 09:25:04,34.628946,262.235795,827.363636,97.6
80, 09:25:04,34.502052,261.992424,825.710227,97.6
81, 09:25:04,34.390901,261.647135,824.442472,97.6
82, 09:25:04,34.393545,261.530066,824.12642,97.6
83, 09:25:04,34.452178,261.480114,823.931818,97.6
84, 09:25:04,34.474156,261.489228,824.151278,97.6
85, 09:25:04,34.506195,261.498224,824.722301,97.6
86, 09:25:04,34.50075,261.479522,824.365767,97.6
87, 09:25:04,34.524108,261.446378,824.362926,97.6
88, 09:25:04,34.521938,261.410985,824.517045,97.6
89, 09:25:04,34.508523,261.369792,824.534091,97.6
90, 09:25:05,34.490807,261.321378,824.40554,97.625
91, 09:25:05,34.5073,261.296046,824.554688,97.625
92, 09:25:05,34.530303,261.344697,824.923295,97.625
93, 09:25:05,34.544902,261.515388,824.401989,97.625
94, 09:25:05,34.564394,261.633049,824.366477,97.625
95, 09:25:05,34.585188,261.718158,825.888494,97.625
96, 09:25:05,34.581163,261.748698,825.145597,97.625
97, 09:25:05,34.572877,261.839844,825.99929,97.625
98, 09:25:05,34.56759,261.876065,825.415483,97.625
99, 09:25:05,34.564828,262.056226,826.229403,97.625
100, 09:25:05,34.547191,262.080966,825.903409,97.625
101, 09:25:05,34.565499,262.132102,826.232955,97.625
102, 09:25:05,34.551452,262.24858,826.448864,97.625
103, 09:25:05,34.532592,262.385653,825.552557,97.625
104, 09:25:05,34.545889,262.540601,826.399858,97.625
105, 09:25:05,34.538707,262.687618,826.568892,97.625
106, 09:25:05,34.539536,262.803741,826.944602,97.625
107, 09:25:05,34.548414,262.984257,827.18679,97.625
108, 09:25:05,34.534328,263.071259,827.646307,97.625
109, 09:25:05,34.430043,262.860204,826.590199,97.625
110, 09:25:05,34.277936,262.485322,824.335227,97.625
111, 09:25:05,34.248974,262.283854,824.56108,97.625
112, 09:25:05,34.304648,262.301728,824.841619,97.625
113, 09:25:05,34.331045,262.182528,824.731534,97.625
114, 09:25:05,34.34083,262.09446,823.74858,97.625
115, 09:25:05,34.360361,262.017164,823.753551,97.625
116, 09:25:05,34.351444,261.856889,824.044744,97.625
117, 09:25:05,34.393308,261.78125,824.130682,97.625
118, 09:25:05,34.405698,261.826941,824.677557,97.625
119, 09:25:05,34.422861,261.751539,824.34446,97.625
120, 09:25:06,34.432884,261.708688,824.34304,97.625
121, 09:25:06,34.452336,261.692708,824.732955,97.625
122, 09:25:06,34.485559,261.685369,824.572443,97.625
123, 09:25:06,34.489938,261.763849,825.091619,97.625
124, 09:25:06,34.48544,261.845526,823.993608,97.625
125, 09:25:06,34.513494,261.870028,825.169034,97.625
126, 09:25:06,34.515428,261.94259,824.888494,97.625
127, 09:25:06,34.548493,262.020952,825.96946,97.625
128, 09:25:06,34.527423,262.102154,825.325994,97.625
129, 09:25:06,34.532118,262.130919,826.197443,97.625
130, 09:25:06,34.530855,262.244555,825.927557,97.625
131, 09:25:06,34.526436,262.316525,826.490057,97.625
132, 09:25:06,34.519847,262.47526,825.879972,97.625
133, 09:25:06,34.522648,262.531487,826.43892,97.625
134, 09:25:06,34.521899,262.602154,826.976562,97.625
135, 09:25:06,34.509351,262.734967,827.037642,97.625
136, 09:25:06,34.505011,262.837476,826.664062,97.625
137, 09:25:06,34.496843,263.000473,826.977273,97.625
138, 09:25:06,34.491793,263.061553,827.167614,97.625
139, 09:25:06,34.491241,263.23982,827.339489,97.625
140, 09:25:06,34.478062,263.469223,827.829545,97.625
141, 09:25:06,34.472459,263.592093,828.723011,97.625
142, 09:25:06,34.36849,263.392401,827.808949,97.625
143, 09:25:06,34.214291,262.93312,825.411222,97.625
144, 09:25:06,34.170967,262.71508,824.455256,97.625
145, 09:25:06,34.207386,262.609848,825.440341,97.625
146, 09:25:06,34.268505,262.633168,826.040483,97.625
147, 09:25:06,34.279987,262.620265,825.633523,97.625
148, 09:25:06,34.279553,262.443774,825.435369,97.625
149, 09:25:06,34.286261,262.266454,825.12429,97.625
150, 09:25:07,34.327336,262.21875,825.204545,97.65
151, 09:25:07,34.347301,262.204782,825.15767,97.65
152, 09:25:07,34.350379,262.132102,824.147727,97.65
153, 09:25:07,34.364504,262.085464,824.674716,97.65
154, 09:25:07,34.39173,262.086648,825.119318,97.65
155, 09:25:07,34.383365,262.069129,824.835227,97.65
156, 09:25:07,34.431937,262.141927,824.786222,97.65
157, 09:25:07,34.446181,262.163352,825.377841,97.65
158, 09:25:07,34.455769,262.232363,825.397017,97.65
159, 09:25:07,34.464291,262.261719,825.706676,97.65
160, 09:25:07,34.454545,262.359375,825.559659,97.65
161, 09:25:07,34.45782,262.400923,826.121449,97.65
162, 09:25:07,34.450521,262.46804,826.024148,97.65
163, 09:25:07,34.459596,262.576231,826.789773,97.65
164, 09:25:07,34.467606,262.677912,826.87429,97.65
165, 09:25:07,34.461845,262.795573,827.029119,97.65
166, 09:25:07,34.467724,262.872396,827.919034,97.65
167, 09:25:07,34.479364,262.976444,827.367188,97.65
168, 09:25:07,34.474669,263.095881,827.634943,97.65
169, 09:25:07,34.482205,263.26669,828.210938,97.65
170, 09:25:07,34.475655,263.345999,828.348722,97.65
171, 09:25:07,34.46583,263.540956,828.089489,97.65
172, 09:25:07,34.451073,263.645833,827.696023,97.65
173, 09:25:07,34.448548,263.708807,828.352273,97.65
174, 09:25:07,34.434896,263.857718,828.578125,97.65
175, 09:25:07,34.442432,264.002012,829.239347,97.65
176, 09:25:07,34.421717,264.117898,828.931818,97.65
177, 09:25:07,34.292614,263.868845,827.536932,97.65
178, 09:25:07,34.137626,263.418087,826.045455,97.65
179, 09:25:07,34.127723,263.232126,825.949574,97.65
180, 09:25:08,34.154948,263.197325,826.149858,97.65
181, 09:25:08,34.190301,263.20348,826.402699,97.65
182, 09:25:08,34.201981,263.192116,826.016335,97.65
183, 09:25:08,34.208254,262.997396,825.856534,97.65
184, 09:25:08,34.211608,262.925545,825.570312,97.65
185, 09:25:08,34.249211,262.920455,825.926136,97.65
186, 09:25:08,34.260338,262.860559,824.723011,97.65
187, 09:25:08,34.25584,262.848485,825.110795,97.65
188, 09:25:08,34.26819,262.804096,825.137074,97.65
189, 09:25:08,34.284367,262.811435,825.760653,97.65
190, 09:25:08,34.326705,262.892992,825.696023,97.65
191, 09:25:08,34.337989,262.913116,826.84517,97.65
192, 09:25:08,34.372396,262.98982,826.225852,97.65
193, 09:25:08,34.367188,263.031013,826.930398,97.65
194, 09:25:08,34.363636,263.09375,826.071023,97.65
195, 09:25:08,34.361151,263.123698,826.796165,97.65
196, 09:25:08,34.386955,263.22242,827.254972,97.65
197, 09:25:08,34.392558,263.29652,827.557528,97.65
198, 09:25:08,34.384825,263.438092,827.131392,97.65
199, 09:25:08,34.374645,263.465317,827.493608,97.65
200, 09:25:08,34.384746,263.610204,827.692472,97.65
201, 09:25:08,34.383523,263.657197,828.150568,97.65
202, 09:25:08,34.411813,263.817353,828.497869,97.65
203, 09:25:08,34.404751,264.017756,828.950284,97.65
204, 09:25:08,34.420849,264.109612,829.049716,97.65
205, 09:25:08,34.385574,264.199811,829.829545,97.65
206, 09:25:08,34.379064,264.314749,829.590199,97.65
207, 09:25:08,34.389678,264.410985,829.872159,97.65
208, 09:25:08,34.364938,264.576349,830.020597,97.65
209, 09:25:08,34.344105,264.697562,830.31321,97.65
210, 09:25:09,34.351326,264.767992,830.25,97.65
211, 09:25:09,34.303346,264.806818,830.139205,97.65
212, 09:25:09,34.125868,264.460464,828.240057,97.65
213, 09:25:09,34.054964,264.15116,826.864347,97.65
214, 09:25:09,34.063842,264.102509,827.046875,97.65
215, 09:25:09,34.113281,264.161813,827.860085,97.65
216, 09:25:09,34.153093,264.173295,827.346591,97.65
217, 09:25:09,34.153883,264.089962,827.318182,97.65
218, 09:25:09,34.159643,264.025805,827.103693,97.65
219, 09:25:09,34.180753,264.019531,827.398438,97.65
220, 09:25:09,34.184186,263.96733,827.465909,97.65
221, 09:25:09,34.195194,263.938329,827.198153,97.65
222, 09:25:09,34.185448,263.887311,826.991477,97.65
223, 09:25:09,34.193971,263.862689,827.295455,97.65
224, 09:25:09,34.216461,263.862926,827.455966,97.65
225, 09:25:09,34.236151,263.992543,828.097301,97.65
226, 09:25:09,34.247554,263.991241,827.77983,97.65
227, 09:25:09,34.251539,264.06901,828.277699,97.65
228, 09:25:09,34.260851,264.088423,828.84304,97.65
229, 09:25:09,34.255642,264.15187,828.87429,97.65
230, 09:25:09,34.258483,264.239465,828.675426,97.65
231, 09:25:09,34.274897,264.270241,828.950994,97.65
232, 09:25:09,34.26961,264.366122,829.102983,97.65
233, 09:25:09,34.271662,264.552202,829.486506,97.65
234, 09:25:09,34.270241,264.647846,829.517756,97.65
235, 09:25:09,34.268071,264.710464,829.629261,97.65
236, 09:25:09,34.279869,264.800781,830.233665,97.65
237, 09:25:09,34.272688,264.948745,830.877131,97.65
238, 09:25:09,34.267835,265.082386,830.963068,97.65
239, 09:25:09,34.265309,265.205966,831.005682,97.65
240, 09:25:10,34.283302,265.285511,831.178977,97.925
241, 09:25:10,34.273872,265.382694,831.497869,97.925
242, 09:25:10,34.275568,265.46875,831.818182,97.925
243, 09:25:10,34.250473,265.598958,831.860795,97.925
244, 09:25:10,34.182252,265.501302,831.283381,97.925
245, 09:25:10,34.010614,265.034209,828.435369,97.925
246, 09:25:10,33.977825,264.868608,828.299716,97.925
247, 09:25:10,34.017164,264.885298,828.81179,97.925
248, 09:25:10,34.060369,264.866241,828.700284,97.925
249, 09:25:10,34.102588,264.922348,829.173295,97.925
250, 09:25:10,34.115136,264.970881,829.225852,97.925
251, 09:25:10,34.133641,264.949219,829.632812,97.925
252, 09:25:10,34.129261,264.918561,829.363636,97.925
253, 09:25:10,34.125039,264.852865,829.259233,97.925
254, 09:25:10,34.101878,264.758286,828.62358,97.925
255, 09:25:10,34.116675,264.734967,828.651278,97.925
256, 09:25:10,34.126854,264.713423,828.860085,97.925
257, 09:25:10,34.160472,264.755563,829.604403,97.925
258, 09:25:10,34.16276,264.833452,829.549006,97.925
259, 09:25:10,34.194208,264.900805,830.166193,97.925
260, 09:25:10,34.201744,264.975971,829.915483,97.925
261, 09:25:10,34.216698,265.03125,829.676136,97.925
262, 09:25:10,34.197996,265.037642,830.509943,97.925
263, 09:25:10,34.203993,265.09304,830.174716,97.925
264, 09:25:10,34.208294,265.155185,830.232244,97.925
265, 09:25:10,34.196181,265.215909,830.724432,97.925
266, 09:25:10,34.198745,265.303622,830.662642,97.925
267, 09:25:10,34.206005,265.375592,830.867188,97.925
268, 09:25:10,34.20056,265.471473,831.192472,97.925
269, 09:25:10,34.185211,265.582623,831.34233,97.925
270, 09:25:11,34.199968,265.685133,831.292614,97.95
271, 09:25:11,34.205611,265.802912,831.93679,97.95
272, 09:25:11,34.206005,265.845289,832.040483,97.95
273, 09:25:11,34.183199,265.970052,832.09304,97.95
274, 09:25:11,34.173256,266.047704,832.095881,97.95
275, 09:25:11,34.128078,266.097775,831.921875,97.95
276, 09:25:11,33.958333,265.617424,829.650568,97.95
277, 09:25:11,33.867977,265.338305,828.211648,97.95
278, 09:25:11,33.892953,265.230942,829.195312,97.95
279, 09:25:11,33.959517,265.165009,829.109375,97.95
280, 09:25:11,33.994358,265.180516,829.174006,97.95
281, 09:25:11,34.011127,265.168324,829.549716,97.95
282, 09:25:11,34.019689,265.109257,829.175426,97.95
283, 09:25:11,34.03922,265.036222,828.856534,97.95
284, 09:25:11,34.045376,265.024384,828.941761,97.95
285, 09:25:11,34.055634,264.973248,829.276989,97.95
286, 09:25:11,34.05378,264.89098,829.09304,97.95
287, 09:25:11,34.077691,264.874171,829.870028,97.95
288, 09:25:11,34.093632,264.862808,829.460938,97.95
289, 09:25:11,34.115451,264.912642,829.62642,97.95
290, 09:25:11,34.130287,264.921165,829.711648,97.95
291, 09:25:11,34.137508,264.896425,829.458097,97.95
292, 09:25:11,34.146701,264.918324,830.012784,97.95
293, 09:25:11,34.16426,265.002723,829.911222,97.95
294, 09:25:11,34.140941,265.015625,829.644886,97.95
295, 09:25:11,34.139086,265.047467,829.614347,97.95
296, 09:25:11,34.15988,265.119792,829.997159,97.95
297, 09:25:11,34.173138,265.255682,830.278409,97.95
298, 09:25:11,34.180358,265.347893,830.90554,97.95
299, 09:25:11,34.194444,265.440341,831.360795,97.95
300, 09:25:12,34.200087,265.541075,831.533381,97.925
301, 09:25:12,34.187145,265.654238,831.902699,97.925
302, 09:25:12,34.170376,265.757812,831.56392,97.925
303, 09:25:12,34.185646,265.837713,832.040483,97.925
304, 09:25:12,34.175387,265.942353,832.242188,97.925
305, 09:25:12,34.166627,266.045336,832.897017,97.925
306, 09:25:12,34.15913,266.107599,832.597301,97.925
307, 09:25:12,34.160235,266.259588,832.622869,97.925
308, 09:25:12,34.117424,266.298295,832.392045,97.925
309, 09:25:12,33.94768,265.956203,830.262784,97.925
310, 09:25:12,33.791035,265.519413,829.036932,97.925
311, 09:25:12,33.824495,265.389678,828.6875,97.925
312, 09:25:12,33.897885,265.33286,828.46875,97.925
313, 09:25:12,33.951073,265.345644,829.400568,97.925
314, 09:25:12,33.969776,265.285748,829.362216,97.925
315, 09:25:12,33.967053,265.183357,829.193892,97.925
316, 09:25:12,33.993213,265.070549,829.073864,97.925
317, 09:25:12,34.020439,265.039062,829.265625,97.925
318, 09:25:12,34.042219,265.019176,829.288352,97.925
319, 09:25:12,34.067038,264.933594,829.647017,97.925
320, 09:25:12,34.068142,264.878196,829.129972,97.925
321, 09:25:12,34.094855,264.896307,829.119318,97.925
322, 09:25:12,34.113952,264.862689,829.363636,97.925
323, 09:25:12,34.137034,264.888849,829.810369,97.925
324, 09:25:12,34.169863,264.980232,829.912642,97.925
325, 09:25:12,34.165799,265.010653,830.169034,97.925
326, 09:25:12,34.169547,265.029948,830.102983,97.925
327, 09:25:12,34.17515,265.118726,830.209517,97.925
328, 09:25:12,34.181621,265.186435,830.192472,97.925
329, 09:25:12,34.18892,265.251894,830.914773,97.925
330, 09:25:13,34.185961,265.267637,830.710938,97.925
331, 09:25:13,34.179648,265.309304,830.577415,97.925
332, 09:25:13,34.189197,265.35973,830.942472,97.925
333, 09:25:13,34.182765,265.480114,830.909091,97.925
334, 09:25:13,34.180911,265.556937,830.628551,97.925
335, 09:25:13,34.184541,265.687618,831.401278,97.925
336, 09:25:13,34.184107,265.790956,831.90483,97.925
337, 09:25:13,34.17586,265.885062,832.316051,97.925
338, 09:25:13,34.185724,266.023082,832.581676,97.925
339, 09:25:13,34.178741,266.132812,832.62358,97.925
340, 09:25:13,34.165286,266.275213,832.540483,97.925
341, 09:25:13,34.134351,266.404001,832.352983,97.925
342, 09:25:13,34.141256,266.477273,832.786932,97.925
343, 09:25:13,34.046757,266.249645,832.21946,97.925
344, 09:25:13,33.85101,265.808712,829.400568,97.925
345, 09:25:13,33.837871,265.518348,829.360085,97.925
346, 09:25:13,33.900923,265.500592,829.18821,97.925
347, 09:25:13,33.956045,265.502604,829.762784,97.925
348, 09:25:13,33.983783,265.437145,829.466619,97.925
349, 09:25:13,34.004577,265.310133,829.681818,97.925
350, 09:25:13,34.012034,265.185251,829.483665,97.925
351, 09:25:13,34.045731,265.106416,829.581676,97.925
352, 09:25:13,34.074219,265.085346,829.654119,97.925
353, 09:25:13,34.077257,264.995975,830.06108,97.925
354, 09:25:13,34.076941,264.899858,828.700284,97.925
355, 09:25:13,34.092961,264.835227,828.863636,97.925
356, 09:25:13,34.121409,264.842448,829.174006,97.925
357, 09:25:13,34.143505,264.849077,829.472301,97.925
358, 09:25:13,34.171283,264.89027,829.554688,97.925
359, 09:25:13,34.198785,264.973248,830.56392,97.925
360, 09:25:14,34.214646,265.001894,830.082386,97.925
361, 09:25:14,34.228022,265.005563,830.15554,97.925
362, 09:25:14,34.242582,265.099905,830.477273,97.925
363, 09:25:14,34.247711,265.227983,831.478693,97.925
364, 09:25:14,34.240925,265.256866,831.410511,97.925
365, 09:25:14,34.245226,265.303385,831.658381,97.925
366, 09:25:14,34.246567,265.377959,831.364347,97.925
367, 09:25:14,34.262113,265.529711,832.107244,97.925
368, 09:25:14,34.263613,265.596709,832.205256,97.925
369, 09:25:14,34.268782,265.719223,832.9375,97.925
370, 09:25:14,34.256313,265.806818,832.721591,97.925
371, 09:25:14,34.290443,266.003433,833.409801,97.925
372, 09:25:14,34.229048,266.118963,832.989347,97.925
373, 09:25:14,34.24345,266.170691,833.34233,97.925
374, 09:25:14,34.239307,266.233073,833.279119,97.925
375, 09:25:14,34.23035,266.234612,832.987216,97.925
376, 09:25:14,34.159959,266.174953,832.433239,97.925
377, 09:25:14,33.9753,265.687263,830.044034,97.925
378, 09:25:14,33.942827,265.337476,829.950994,97.925
379, 09:25:14,33.974195,265.209991,829.509943,97.925
380, 09:25:14,34.0247,265.117188,829.660511,97.925
381, 09:25:14,34.066643,265.137429,829.909801,97.925
382, 09:25:14,34.092014,264.93892,829.803977,97.925
383, 09:25:14,34.093711,264.822325,829.047585,97.925
384, 09:25:14,34.121528,264.719223,828.988636,97.925
385, 09:25:14,34.163826,264.700758,829.721591,97.925
386, 09:25:14,34.172783,264.664181,828.854403,97.925
387, 09:25:14,34.18892,264.522727,828.752841,97.925
388, 09:25:14,34.201349,264.426018,828.729403,97.925
389, 09:25:14,34.227549,264.394768,828.68679,97.925
390, 09:25:15,34.249724,264.410156,828.682528,97.9
391, 09:25:15,34.272648,264.4491,828.913352,97.9
392, 09:25:15,34.295612,264.543087,829.363636,97.9
393, 09:25:15,34.293718,264.55161,829.877841,97.9
394, 09:25:15,34.296599,264.580611,829.463778,97.9
395, 09:25:15,34.30599,264.645715,829.720881,97.9
396, 09:25:15,34.313881,264.730469,829.916903,97.9
397, 09:25:15,34.333728,264.826941,830.350852,97.9
398, 09:25:15,34.338305,264.931108,831.066761,97.9
399, 09:25:15,34.343671,265.035275,830.96733,97.9
400, 09:25:15,34.346749,265.105587,831.039773,97.9
401, 09:25:15,34.347854,265.225379,831.002841,97.9
402, 09:25:15,34.348603,265.30812,831.641335,97.9
403, 09:25:15,34.310606,265.499527,832.161932,97.9
404, 09:25:15,34.334912,265.649148,832.207386,97.9
405, 09:25:15,34.341422,265.683357,832.370028,97.9
406, 09:25:15,34.341461,265.784801,833.112216,97.9
407, 09:25:15,34.329072,265.888731,833.258523,97.9
408, 09:25:15,34.300663,265.900568,832.872159,97.9
409, 09:25:15,34.118766,265.461884,830.72017,97.9
410, 09:25:15,34.043284,265.12938,829.105824,97.9
411, 09:25:15,34.099156,264.983546,829.424006,97.9
412, 09:25:15,34.143505,264.93099,829.40696,97.9
413, 09:25:15,34.195234,264.846117,830.372159,97.9
414, 09:25:15,34.232678,264.82919,830.145597,97.9
415, 09:25:15,34.265388,264.765388,829.65767,97.9
416, 09:25:15,34.268229,264.7384,829.973011,97.9
417, 09:25:15,34.269571,264.677083,829.880682,97.9
418, 09:25:15,34.284485,264.538589,829.151989,97.9
419, 09:25:15,34.288116,264.384233,829.339489,97.9
420, 09:25:16,34.317748,264.389323,829.554688,97.9
421, 09:25:16,34.340278,264.334754,829.306818,97.9
422, 09:25:16,34.366201,264.325876,829.725142,97.9
423, 09:25:16,34.380721,264.405421,829.84446,97.9
424, 09:25:16,34.408341,264.464134,830.122869,97.9
425, 09:25:16,34.422191,264.519413,830.423295,97.9
426, 09:25:16,34.41718,264.556463,830.335938,97.9
427, 09:25:16,34.416667,264.609848,830.585227,97.9
428, 09:25:16,34.424519,264.642874,830.041903,97.9
429, 09:25:16,34.427123,264.71224,830.727983,97.9
430, 09:25:16,34.413786,264.731889,830.371449,97.9
431, 09:25:16,34.417771,264.824811,831.048295,97.9
432, 09:25:16,34.4244,264.890625,830.869318,97.9
433, 09:25:16,34.433081,264.992898,831.5625,97.9
434, 09:25:16,34.403961,265.153172,831.296875,97.9
435, 09:25:16,34.42298,265.266572,831.457386,97.9
436, 09:25:16,34.417219,265.334991,831.870739,97.9
437, 09:25:16,34.432844,265.417377,832.393466,97.9
438, 09:25:16,34.396346,265.434304,832.247869,97.9
439, 09:25:16,34.252012,265.061908,830.40554,97.9
440, 09:25:16,34.159288,264.571141,828.637074,97.9
441, 09:25:16,34.183791,264.323153,827.964489,97.9
442, 09:25:16,34.257339,264.211884,828.339489,97.9
443, 09:25:16,34.326705,264.16714,829.102273,97.9
444, 09:25:16,34.363794,264.177557,828.764205,97.9
445, 09:25:16,34.37646,264.094815,828.855824,97.9
446, 09:25:16,34.418127,264.082505,829.517756,97.9
447, 09:25:16,34.427004,264.0116,828.97017,97.9
448, 09:25:16,34.420415,263.919863,828.502131,97.9
449, 09:25:16,34.426176,263.73544,828.253551,97.9
450, 09:25:17,34.456124,263.604167,827.886364,97.9
451, 09:25:17,34.484059,263.562973,828.284091,97.9
452, 09:25:17,34.520399,263.590554,828.841619,97.9
453, 09:25:17,34.533183,263.638376,828.963778,97.9
454, 09:25:17,34.533854,263.676373,828.901989,97.9
455, 09:25:17,34.546204,263.734257,828.825994,97.9
456, 09:25:17,34.559856,263.771899,829.006392,97.9
457, 09:25:17,34.559462,263.813329,829.308949,97.9
458, 09:25:17,34.558081,263.84517,829.690341,97.9
459, 09:25:17,34.537445,263.868016,829.014915,97.9
460, 09:25:17,34.559422,263.955729,829.384943,97.9
461, 09:25:17,34.55449,264.042259,829.62571,97.9
462, 09:25:17,34.563802,264.09955,829.517756,97.9
463, 09:25:17,34.577652,264.18892,830.34375,97.9
464, 09:25:17,34.556897,264.298059,829.995739,97.9
465, 09:25:17,34.534959,264.506866,830.356534,97.9
466, 09:25:17,34.56175,264.593868,829.989347,97.9
467, 09:25:17,34.54723,264.654948,830.702415,97.9
468, 09:25:17,34.445825,264.376776,829.629972,97.9
469, 09:25:17,34.29139,263.732126,827.168324,97.9
470, 09:25:17,34.297506,263.337595,826.321023,97.9
471, 09:25:17,34.365807,263.000829,826.465199,97.9
472, 09:25:17,34.457386,262.942708,826.34375,97.9
473, 09:25:17,34.503946,262.829545,826.596591,97.9
474, 09:25:17,34.507378,262.65045,826.948153,97.9
475, 09:25:17,34.550663,262.467803,826.028409,97.9
476, 09:25:17,34.587871,262.352154,826.056108,97.9
477, 09:25:17,34.625039,262.207505,826.327415,97.9
478, 09:25:17,34.637113,261.931226,826.178267,97.9
479, 09:25:17,34.655816,261.737808,825.912642,97.9
480, 09:25:18,34.685606,261.670455,825.190341,98.15
481, 09:25:18,34.727943,261.624171,825.628551,98.15
482, 09:25:18,34.751263,261.639205,825.400568,98.15
483, 09:25:18,34.794626,261.654711,826.274858,98.15
484, 09:25:18,34.809935,261.676491,826.806108,98.15
485, 09:25:18,34.824021,261.710701,826.772727,98.15
486, 09:25:18,34.816801,261.698035,826.793324,98.15
487, 09:25:18,34.835977,261.75509,826.618608,98.15
488, 09:25:18,34.81538,261.853812,826.551847,98.15
489, 09:25:18,34.808357,261.905185,826.979403,98.15
490, 09:25:18,34.815933,261.940696,826.715199,98.15
491, 09:25:18,34.826349,262.019768,827.408381,98.15
492, 09:25:18,34.83286,262.116004,826.207386,98.15
493, 09:25:18,34.840396,262.240412,827.695312,98.15
494, 09:25:18,34.872948,262.361269,828.201705,98.15
495, 09:25:18,34.855153,262.471236,827.867188,98.15
496, 09:25:18,34.799519,262.613991,827.783381,98.15
497, 09:25:18,34.819721,262.799124,828.419744,98.15
498, 09:25:18,34.804253,262.805753,827.970881,98.15
499, 09:25:18,34.657907,262.278646,826.728693,98.15
500, 09:25:18,34.561711,261.70928,824.684659,98.15
501, 09:25:18,34.620384,261.163234,823.59304,98.15
502, 09:25:18,34.706084,260.954901,823.772017,98.15
503, 09:25:18,34.778725,260.777462,824.088068,98.15
504, 09:25:18,34.822009,260.540838,824.273438,98.15
505, 09:25:18,34.8561,260.284209,823.65696,98.15
506, 09:25:18,34.881353,260.052202,823.046165,98.15
507, 09:25:18,34.901476,259.91134,822.996449,98.15
508, 09:25:18,34.933554,259.838068,822.855114,98.15
509, 09:25:18,34.959872,259.604522,822.553267,98.15
510, 09:25:19,34.995818,259.466619,822.953125,98.125
511, 09:25:19,35.034485,259.437737,823.308239,98.125
512, 09:25:19,35.059541,259.334399,823.196733,98.125
513, 09:25:19,35.086056,259.251065,822.142756,98.125
514, 09:25:19,35.120818,259.28054,823.15767,98.125
515, 09:25:19,35.147293,259.33866,822.65696,98.125
516, 09:25:19,35.150568,259.410985,823.122159,98.125
517, 09:25:19,35.148043,259.425663,823.181818,98.125
518, 09:25:19,35.14319,259.464134,823.361506,98.125
519, 09:25:19,35.14611,259.476681,823.21804,98.125
520, 09:25:19,35.169074,259.543679,823.722301,98.125
521, 09:25:19,35.166864,259.656842,823.642756,98.125
522, 09:25:19,35.167693,259.681581,824.120739,98.125
523, 09:25:19,35.153093,259.790246,824.301136,98.125
524, 09:25:19,35.168876,259.931818,824.551136,98.125
525, 09:25:19,35.175347,260.086174,824.789773,98.125
526, 09:25:19,35.168995,260.273082,825.115767,98.125
527, 09:25:19,35.13084,260.515625,825.707386,98.125
528, 09:25:19,35.158854,260.674479,825.927557,98.125
529, 09:25:19,35.165167,260.831676,826.171875,98.125
530, 09:25:19,35.123422,260.892519,825.889205,98.125
531, 09:25:19,34.961253,260.377604,824.612216,98.125
532, 09:25:19,34.892558,259.706558,821.753551,98.125
533, 09:25:19,34.957899,259.233546,821.78196,98.125
534, 09:25:19,35.037642,258.972775,822.43608,98.125
535, 09:25:19,35.12062,258.78563,821.929688,98.125
536, 09:25:19,35.16422,258.606297,821.302557,98.125
537, 09:25:19,35.212437,258.44839,821.159091,98.125
538, 09:25:19,35.227588,258.265625,820.909091,98.125
539, 09:25:19,35.278606,258.096236,821.029119,98.125
540, 09:25:20,35.31542,257.995028,820.830966,97.85
541, 09:25:20,35.340396,257.821851,820.831676,97.85
542, 09:25:20,35.364149,257.625592,820.827415,97.85
543, 09:25:20,35.380958,257.56617,820.178267,97.85
544, 09:25:20,35.42006,257.549479,820.390625,97.85
545, 09:25:20,35.445904,257.582031,821.131392,97.85
546, 09:25:20,35.47021,257.564986,821.100142,97.85
547, 09:25:20,35.484454,257.632812,821.285511,97.85
548, 09:25:20,35.510417,257.757576,821.551136,97.85
549, 09:25:20,35.503709,257.840672,822.302557,97.85
550, 09:25:20,35.5116,257.903172,822.22017,97.85
551, 09:25:20,35.522214,258.024503,822.615767,97.85
552, 09:25:20,35.516611,258.049834,822.495028,97.85
553, 09:25:20,35.506392,258.169744,822.34233,97.85
554, 09:25:20,35.510417,258.291667,822.872159,97.85
555, 09:25:20,35.509588,258.381984,822.922585,97.85
556, 09:25:20,35.518032,258.591501,823.091619,97.85
557, 09:25:20,35.495857,258.678859,823.226562,97.85
558, 09:25:20,35.473051,258.909683,823.503551,97.85
559, 09:25:20,35.454861,258.958333,824.494318,97.85
560, 09:25:20,35.465672,259.182055,824.302557,97.85
561, 09:25:20,35.463936,259.388494,824.072443,97.85
562, 09:25:20,35.455966,259.548295,825.082386,97.85
563, 09:25:20,35.367464,259.40116,824.071733,97.85
564, 09:25:20,35.233941,258.760062,821.736506,97.85
565, 09:25:20,35.250552,258.211411,820.575284,97.85
566, 09:25:20,35.336056,257.92294,820.887074,97.85
567, 09:25:20,35.40041,257.805871,820.821023,97.85
568, 09:25:20,35.449455,257.721946,820.87429,97.85
569, 09:25:20,35.464489,257.656723,821.443182,97.85
570, 09:25:21,35.501539,257.522135,821.385653,97.85
571, 09:25:21,35.518308,257.511837,821.022727,97.85
572, 09:25:21,35.531447,257.381274,821.566051,97.85
573, 09:25:21,35.533973,257.185724,820.102983,97.85
574, 09:25:21,35.548966,257.031368,819.827415,97.85
575, 09:25:21,35.576428,256.950402,820.716619,97.85
576, 09:25:21,35.613281,257.029238,820.712358,97.85
577, 09:25:21,35.652975,257.060251,820.904119,97.85
578, 09:25:21,35.687618,257.160393,821.345881,97.85
579, 09:25:21,35.677557,257.183712,821.477273,97.85
580, 09:25:21,35.694444,257.250947,821.258523,97.85
581, 09:25:21,35.70202,257.372633,822.176136,97.85
582, 09:25:21,35.704467,257.460464,822.208807,97.85
583, 09:25:21,35.704901,257.503906,821.821733,97.85
584, 09:25:21,35.697049,257.601089,822.007102,97.85
585, 09:25:21,35.710425,257.614228,822.602983,97.85
586, 09:25:21,35.692235,257.699811,822.542614,97.85
587, 09:25:21,35.700205,257.83357,822.768466,97.85
588, 09:25:21,35.667811,257.966974,823.458097,97.85
589, 09:25:21,35.646386,258.161695,823.160511,97.85
590, 09:25:21,35.654869,258.29652,822.847301,97.85
591, 09:25:21,35.675781,258.496567,823.695312,97.85
592, 09:25:21,35.668048,258.579901,823.502131,97.85
593, 09:25:21,35.653449,258.671993,824.171165,97.85
594, 09:25:21,35.510219,258.365885,823.118608,97.85
595, 09:25:21,35.423217,257.779119,821.041193,97.85
596, 09:25:21,35.453677,257.373343,820.143466,97.85
597, 09:25:21,35.53851,257.163826,820.517045,97.85
598, 09:25:21,35.583491,257.095644,821.196023,97.85
599, 09:25:21,35.632142,257.084399,821.455256,97.85
600, 09:25:22,35.65041,257.0625,820.639205,97.85
601, 09:25:22,35.667653,256.999645,820.554688,97.85
602, 09:25:22,35.699495,257.046402,820.528409,97.85
603, 09:25:22,35.686316,256.935369,820.68608,97.85
604, 09:25:22,35.678267,256.711884,820.066761,97.85
605, 09:25:22,35.690144,256.629143,819.536222,97.85
606, 09:25:22,35.720013,256.562027,820.372159,97.85
607, 09:25:22,35.747554,256.556108,821.169034,97.85
608, 09:25:22,35.775292,256.602865,821.003551,97.85
609, 09:25:22,35.802991,256.717211,821.607244,97.85
610, 09:25:22,35.798769,256.824811,821.048295,97.85
611, 09:25:22,35.794231,256.911103,821.279119,97.85
612, 09:25:22,35.808594,256.99349,821.202415,97.85
613, 09:25:22,35.803346,257.111269,821.252841,97.85
614, 09:25:22,35.813486,257.198982,821.841619,97.85
615, 09:25:22,35.815065,257.270952,821.614347,97.85
616, 09:25:22,35.802991,257.342211,822.306108,97.85
617, 09:25:22,35.797388,257.449929,821.977983,97.85
618, 09:25:22,35.819839,257.722775,822.728693,97.85
619, 09:25:22,35.813408,257.846473,822.777699,97.85
620, 09:25:22,35.762034,257.978338,822.989347,97.85
621, 09:25:22,35.772491,258.130919,824.066761,97.85
622, 09:25:22,35.769137,258.278527,823.790483,97.85
623, 09:25:22,35.674006,258.051847,822.828125,97.85
624, 09:25:22,35.508523,257.334754,819.863636,97.85
625, 09:25:22,35.497988,256.84813,819.040483,97.85
626, 09:25:22,35.589331,256.544981,819.585227,97.85
627, 09:25:22,35.683633,256.33357,818.958807,97.85
628, 09:25:22,35.697404,256.122514,819.297585,97.85
629, 09:25:22,35.732086,256.03196,818.524148,97.85
630, 09:25:23,35.754814,255.901752,818.083807,97.825
631, 09:25:23,35.791469,255.78776,818.948153,97.825
632, 09:25:23,35.819208,255.726089,818.68892,97.825
633, 09:25:23,35.838226,255.578125,818.786932,97.825
634, 09:25:23,35.869476,255.449337,818.539773,97.825
635, 09:25:23,35.889757,255.360559,818.830966,97.825
636, 09:25:23,35.921914,255.314039,818.026278,97.825
637, 09:25:23,35.964291,255.297704,818.698153,97.825
638, 09:25:23,35.990175,255.395715,819.340199,97.825
639, 09:25:23,35.992819,255.462358,819.18608,97.825
640, 09:25:23,36.013336,255.499763,818.84233,97.825
641, 09:25:23,36.010811,255.603456,819.180398,97.825
642, 09:25:23,35.978693,255.659091,819.616477,97.825
643, 09:25:23,35.994673,255.71366,819.864347,97.825
644, 09:25:23,35.987413,255.809777,819.654119,97.825
645, 09:25:23,35.98256,255.901278,820.265625,97.825
646, 09:25:23,35.986032,256.029593,820.197443,97.825
647, 09:25:23,35.97092,256.124882,820.027699,97.825
648, 09:25:23,35.960267,256.275213,820.023438,97.825
649, 09:25:23,35.969776,256.424006,820.737216,97.825
650, 09:25:23,35.978614,256.713305,821.59517,97.825
651, 09:25:23,35.937973,256.955966,821.122159,97.825
652, 09:25:23,35.967408,257.1134,822.410511,97.825
653, 09:25:23,35.918995,257.142874,821.862926,97.825
654, 09:25:23,35.726444,256.587003,819.604403,97.825
655, 09:25:23,35.681463,255.894768,818.12429,97.825
656, 09:25:23,35.744437,255.383878,816.669744,97.825
657, 09:25:23,35.866122,255.145715,817.12429,97.825
658, 09:25:23,35.930911,255.002486,817.299006,97.825
659, 09:25:23,35.967132,254.783499,816.996449,97.825
660, 09:25:24,35.982244,254.565104,816.27983,97.825
661, 09:25:24,36.041509,254.40625,816.471591,97.825
662, 09:25:24,36.070944,254.276278,816.799716,97.825
663, 09:25:24,36.099077,254.046757,815.709517,97.825
664, 09:25:24,36.09592,253.922704,815.664062,97.825
665, 09:25:24,36.113084,253.77107,816.43608,97.825
666, 09:25:24,36.156684,253.714844,816.141335,97.825
667, 09:25:24,36.200402,253.651397,816.317472,97.825
668, 09:25:24,36.228456,253.668324,816.109375,97.825
669, 09:25:24,36.259233,253.812737,816.583807,97.825
670, 09:25:24,36.263968,253.895597,816.856534,97.825
671, 09:25:24,36.275213,253.986624,817.729403,97.825
672, 09:25:24,36.266848,254.109257,818.110085,97.825
673, 09:25:24,36.262824,254.170573,817.517756,97.825
674, 09:25:24,36.250197,254.285156,818.068892,97.825
675, 09:25:24,36.258404,254.331084,817.892756,97.825
676, 09:25:24,36.254261,254.478693,818.133523,97.825
677, 09:25:24,36.230232,254.493253,818.095881,97.825
678, 09:25:24,36.232599,254.578954,817.422585,97.825
679, 09:25:24,36.215317,254.762429,818.034801,97.825
680, 09:25:24,36.208452,254.915128,818.402699,97.825
681, 09:25:24,36.205926,255.132457,818.78054,97.825
682, 09:25:24,36.160511,255.317235,818.948864,97.825
683, 09:25:24,36.180595,255.481179,819.239347,97.825
684, 09:25:24,36.150331,255.585938,819.586648,97.825
685, 09:25:24,36.076113,255.469342,819.276278,97.825
686, 09:25:24,35.918324,254.745028,816.319602,97.825
687, 09:25:24,35.937539,254.171993,815.083097,97.825
688, 09:25:24,36.010456,253.900213,815.148438,97.825
689, 09:25:24,36.104403,253.677794,815.276989,97.825
690, 09:25:25,36.164654,253.466501,815.605824,97.8
691, 09:25:25,36.180713,253.258996,814.840909,97.8
692, 09:25:25,36.21658,253.069247,814.847301,97.8
693, 09:25:25,36.258602,253.014915,814.544034,97.8
694, 09:25:25,36.282592,252.907434,814.580966,97.8
695, 09:25:25,36.298729,252.793442,814.490767,97.8
696, 09:25:25,36.311277,252.582031,814.083097,97.8
697, 09:25:25,36.347262,252.506274,814.014915,97.8
698, 09:25:25,36.373816,252.482244,814.59233,97.8
699, 09:25:25,36.395597,252.498816,814.484375,97.8
700, 09:25:25,36.42294,252.544863,814.612926,97.8
701, 09:25:25,36.42657,252.644295,815.240767,97.8
702, 09:25:25,36.438999,252.752131,815.018466,97.8
703, 09:25:25,36.489938,252.942827,816.202415,97.8
704, 09:25:25,36.477352,253.037169,816.103693,97.8
705, 09:25:25,36.479364,253.135062,816.537642,97.8
706, 09:25:25,36.475971,253.258404,816.314631,97.8
707, 09:25:25,36.462121,253.372159,816.357955,97.8
708, 09:25:25,36.47238,253.461174,817.323864,97.8
709, 09:25:25,36.463857,253.633996,817.130682,97.8
710, 09:25:25,36.46875,253.806345,817.409091,97.8
711, 09:25:25,36.462397,254.029711,817.789062,97.8
712, 09:25:25,36.453322,254.242543,818.051847,97.8
713, 09:25:25,36.405934,254.43892,817.607955,97.8
714, 09:25:25,36.434067,254.573509,819.023438,97.8
715, 09:25:25,36.429609,254.766098,819.451705,97.8
716, 09:25:25,36.390625,254.827652,818.8125,97.8
717, 09:25:25,36.222735,254.350024,816.441051,97.8
718, 09:25:25,36.166272,253.80232,814.71733,97.8
719, 09:25:25,36.209044,253.321259,814.901989,97.8
720, 09:25:26,36.304214,253.148438,814.50142,97.775
721, 09:25:26,36.353654,253.041075,815.300426,97.775
722, 09:25:26,36.391375,252.902817,815.601562,97.775
723, 09:25:26,36.402344,252.845289,815.213778,97.775
724, 09:25:26,36.434541,252.78705,814.745028,97.775
725, 09:25:26,36.45494,252.744555,814.933239,97.775
726, 09:25:26,36.461924,252.652817,815.050426,97.775
727, 09:25:26,36.470723,252.512074,814.850852,97.775
728, 09:25:26,36.470604,252.421757,814.209517,97.775
729, 09:25:26,36.506866,252.40696,814.913352,97.775
730, 09:25:26,36.532907,252.403172,814.68608,97.775
731, 09:25:26,36.567393,252.47017,814.795455,97.775
732, 09:25:26,36.580808,252.566288,814.948864,97.775
733, 09:25:26,36.593513,252.702888,816.00142,97.775
734, 09:25:26,36.598603,252.801965,815.649858,97.775
735, 09:25:26,36.598327,252.889678,815.653409,97.775
736, 09:25:26,36.598288,252.967211,815.678267,97.775
737, 09:25:26,36.613755,253.098366,816.683949,97.775
738, 09:25:26,36.600103,253.25438,816.227983,97.775
739, 09:25:26,36.594658,253.349787,816.882812,97.775
740, 09:25:26,36.607797,253.484375,817.230114,97.775
741, 09:25:26,36.592566,253.658854,817.808239,97.775
742, 09:25:26,36.587003,253.807884,817.693892,97.775
743, 09:25:26,36.582386,253.933239,818.071023,97.775
744, 09:25:26,36.514362,254.170455,817.684659,97.775
745, 09:25:26,36.53709,254.324811,818.457386,97.775
746, 09:25:26,36.480035,254.225616,817.78267,97.775
747, 09:25:26,36.33428,253.789773,816.164773,97.775
748, 09:25:26,36.307726,253.26456,814.732244,97.775
749, 09:25:26,36.371646,253.020715,814.879972,97.775
750, 09:25:27,36.427044,252.832741,814.791903,97.775
751, 09:25:27,36.511364,252.965436,815.321023,97.775
752, 09:25:27,36.546046,252.947798,816.075994,97.775
753, 09:25:27,36.574377,252.950876,816.327415,97.775
754, 09:25:27,36.57556,252.857836,816.004972,97.775
755, 09:25:27,36.566761,252.820076,815.5625,97.775
756, 09:25:27,36.563408,252.732363,815.442472,97.775
757, 09:25:27,36.550229,252.646425,815.409801,97.775
758, 09:25:27,36.56905,252.5509,815.25142,97.775
759, 09:25:27,36.598169,252.576231,815.556818,97.775
760, 09:25:27,36.625986,252.596236,815.676847,97.775
761, 09:25:27,36.647609,252.691406,816.068892,97.775
762, 09:25:27,36.649345,252.8183,815.986506,97.775
763, 09:25:27,36.650805,252.897491,816.072443,97.775
764, 09:25:27,36.664891,252.986151,816.200994,97.775
765, 09:25:27,36.669705,253.074455,816.489347,97.775
766, 09:25:27,36.660945,253.217685,816.808949,97.775
767, 09:25:27,36.646465,253.304924,816.477273,97.775
768, 09:25:27,36.651831,253.434186,817.321023,97.775
769, 09:25:27,36.64169,253.6192,817.772017,97.775
770, 09:25:27,36.621567,253.710819,817.668324,97.775
771, 09:25:27,36.623264,253.868371,818.340909,97.775
772, 09:25:27,36.62208,254.043797,818.671875,97.775
773, 09:25:27,36.601168,254.241004,818.644886,97.775
774, 09:25:27,36.54214,254.277462,818.880682,97.775
775, 09:25:27,36.337595,253.857481,815.934659,97.775
776, 09:25:27,36.321733,253.292377,814.538352,97.775
777, 09:25:27,36.40767,253.040246,814.258523,97.775
778, 09:25:27,36.477983,252.859612,814.901989,97.775
779, 09:25:27,36.526752,252.804688,815.294034,97.775
780, 09:25:28,36.564631,252.744555,815.492898,98.0
781, 09:25:28,36.592645,252.672822,815.059659,98.0
782, 09:25:28,36.611151,252.632221,815.864347,98.0
783, 09:25:28,36.629498,252.631866,815.276989,98.0
784, 09:25:28,36.625434,252.596946,814.612926,98.0
785, 09:25:28,36.625276,252.478575,815.473722,98.0
786, 09:25:28,36.643584,252.39098,815.161222,98.0
787, 09:25:28,36.666469,252.376302,814.990767,98.0
788, 09:25:28,36.689394,252.410511,815.565341,98.0
789, 09:25:28,36.697128,252.535985,815.548295,98.0
790, 09:25:28,36.72092,252.638613,816.03054,98.0
791, 09:25:28,36.72968,252.729285,816.213778,98.0
792, 09:25:28,36.747593,252.831795,816.118608,98.0
793, 09:25:28,36.736348,252.920691,816.308239,98.0
794, 09:25:28,36.720604,253.065696,816.902699,98.0
795, 09:25:28,36.697443,253.164773,816.914773,98.0
796, 09:25:28,36.695825,253.304806,816.990767,98.0
797, 09:25:28,36.709793,253.478338,816.960938,98.0
798, 09:25:28,36.711095,253.604877,817.47017,98.0
799, 09:25:28,36.69184,253.772964,817.723011,98.0
800, 09:25:28,36.687066,253.907789,818.963778,98.0
801, 09:25:28,36.693853,254.096236,819.071733,98.0
802, 09:25:28,36.689433,254.324455,818.995028,98.0
803, 09:25:28,36.62425,254.33724,819.296165,98.0
804, 09:25:28,36.459793,253.952296,816.404119,98.0
805, 09:25:28,36.357876,253.314157,814.512784,98.0
806, 09:25:28,36.39532,252.843158,814.056108,98.0
807, 09:25:28,36.448745,252.718868,814.932528,98.0
808, 09:25:28,36.52691,252.59304,814.34517,98.0
809, 09:25:28,36.537997,252.497988,814.21804,98.0
810, 09:25:29,36.56688,252.383878,814.019176,97.975
811, 09:25:29,36.607797,252.320549,814.752841,97.975
812, 09:25:29,36.633444,252.274858,814.78267,97.975
813, 09:25:29,36.661971,252.231652,814.830256,97.975
814, 09:25:29,36.667022,252.125118,814.418324,97.975
815, 09:25:29,36.667101,252.103101,814.598722,97.975
816, 09:25:29,36.704743,252.010062,814.273438,97.975
817, 09:25:29,36.748185,252.096828,814.981534,97.975
818, 09:25:29,36.770241,252.165365,815.159801,97.975
819, 09:25:29,36.790365,252.239938,815.18679,97.975
820, 09:25:29,36.796914,252.375592,816.108665,97.975
821, 09:25:29,36.79214,252.46875,816.071023,97.975
822, 09:25:29,36.798019,252.611387,815.583097,97.975
823, 09:25:29,36.780777,252.71733,815.693182,97.975
824, 09:25:29,36.771701,252.848722,815.992898,97.975
825, 09:25:29,36.775884,252.898674,816.71875,97.975
826, 09:25:29,36.776752,253.070786,816.737216,97.975
827, 09:25:29,36.747356,253.189986,816.915483,97.975
828, 09:25:29,36.745147,253.299834,817.091619,97.975
829, 09:25:29,36.747751,253.460582,817.283381,97.975
830, 09:25:29,36.746291,253.740767,817.776989,97.975
831, 09:25:29,36.740885,253.903527,818.441051,97.975
832, 09:25:29,36.72455,254.073272,818.882812,97.975
833, 09:25:29,36.720565,254.318892,818.836648,97.975
834, 09:25:29,36.629419,254.291193,818.613636,97.975
835, 09:25:29,36.449021,253.711648,816.377841,97.975
836, 09:25:29,36.410314,253.342211,814.661222,97.975
837, 09:25:29,36.460898,252.912997,814.585938,97.975
838, 09:25:29,36.52837,252.929332,814.368608,97.975
839, 09:25:29,36.589528,252.833925,814.972301,97.975
840, 09:25:30,36.618411,252.783262,815.424006,97.975
841, 09:25:30,36.650608,252.638376,815.299006,97.975
842, 09:25:30,36.678622,252.578007,814.649858,97.975
843, 09:25:30,36.697562,252.521188,815.036222,97.975
844, 09:25:30,36.702928,252.417969,815.766335,97.975
845, 09:25:30,36.699574,252.388021,814.919034,97.975
846, 09:25:30,36.719618,252.341619,814.919034,97.975
847, 09:25:30,36.735085,252.382339,814.768466,97.975
848, 09:25:30,36.759075,252.396544,815.015625,97.975
849, 09:25:30,36.778646,252.48982,815.705966,97.975
850, 09:25:30,36.797783,252.587003,816.439631,97.975
851, 09:25:30,36.816919,252.693182,816.127841,97.975
852, 09:25:30,36.826152,252.841146,816.299716,97.975
853, 09:25:30,36.809067,253.008641,817.029119,97.975
854, 09:25:30,36.803977,253.148201,816.801136,97.975
855, 09:25:30,36.807528,253.202888,817.544034,97.975
856, 09:25:30,36.81325,253.285866,817.522017,97.975
857, 09:25:30,36.819918,253.515625,817.786932,97.975
858, 09:25:30,36.783262,253.741359,817.970881,97.975
859, 09:25:30,36.78346,253.894413,818.352273,97.975
860, 09:25:30,36.798098,254.051018,819.053267,97.975
861, 09:25:30,36.796836,254.315223,819.703835,97.975
862, 09:25:30,36.782355,254.496686,819.292614,97.975
863, 09:25:30,36.740964,254.612098,819.323153,97.975
864, 09:25:30,36.737058,254.808239,819.278409,97.975
865, 09:25:30,36.705769,255.011719,820.215199,97.975
866, 09:25:30,36.602233,254.839844,818.879972,97.975
867, 09:25:30,36.466659,254.29581,817.192472,97.975
868, 09:25:30,36.421914,253.869437,816.634233,97.975
869, 09:25:30,36.485559,253.819839,816.390625,97.975
870, 09:25:31,36.543482,253.7616,816.74858,97.975
871, 09:25:31,36.606021,253.72526,817.115767,97.975
872, 09:25:31,36.624724,253.681463,816.821733,97.975
873, 09:25:31,36.655106,253.651397,817.269176,97.975
874, 09:25:31,36.651989,253.642519,816.840909,97.975
875, 09:25:31,36.660866,253.627959,817.171165,97.975
876, 09:25:31,36.646741,253.5567,816.581676,97.975
877, 09:25:31,36.64461,253.50438,816.941051,97.975
878, 09:25:31,36.670731,253.49562,817.002131,97.975
879, 09:25:31,36.693892,253.527225,817.009943,97.975
880, 09:25:31,36.7384,253.58215,816.887784,97.975
881, 09:25:31,36.757142,253.691406,818.105824,97.975
882, 09:25:31,36.772057,253.811908,818.075994,97.975
883, 09:25:31,36.759943,253.931345,818.303977,97.975
884, 09:25:31,36.737137,253.983665,818.339489,97.975
885, 09:25:31,36.732086,254.154593,818.598011,97.975
886, 09:25:31,36.738676,254.274266,818.458097,97.975
887, 09:25:31,36.747711,254.514915,819.669034,97.975
888, 09:25:31,36.753354,254.65258,819.753551,97.975
889, 09:25:31,36.744831,254.812618,819.833097,97.975
890, 09:25:31,36.728654,254.900923,820.479403,97.975
891, 09:25:31,36.703125,255.046402,820.596591,97.975
892, 09:25:31,36.705848,255.22313,820.566051,97.975
893, 09:25:31,36.707741,255.46224,821.475142,97.975
894, 09:25:31,36.698785,255.619555,821.353693,97.975
895, 09:25:31,36.675032,255.821023,822.133523,97.975
896, 09:25:31,36.569247,255.74562,821.044744,97.975
897, 09:25:31,36.430043,255.289181,819.110085,97.975
898, 09:25:31,36.411458,254.936553,817.823864,97.975
899, 09:25:31,36.432844,254.660275,817.634943,97.975
900, 09:25:32,36.527265,254.69401,818.229403,97.95
901, 09:25:32,36.576231,254.751894,818.980114,97.95
902, 09:25:32,36.599747,254.727273,818.772727,97.95
903, 09:25:32,36.623027,254.807055,819.427557,97.95
904, 09:25:32,36.625316,254.874053,819.130682,97.95
905, 09:25:32,36.629104,254.903409,819.732955,97.95
906, 09:25:32,36.613913,254.763613,819.703835,97.95
907, 09:25:32,36.604759,254.65992,819.297585,97.95
908, 09:25:32,36.635101,254.663826,819.426136,97.95
909, 09:25:32,36.649503,254.71224,818.889915,97.95
910, 09:25:32,36.671046,254.816643,819.325994,97.95
911, 09:25:32,36.682568,254.889086,819.789062,97.95
912, 09:25:32,36.711766,254.990885,819.888494,97.95
913, 09:25:32,36.702849,255.136955,820.191051,97.95
914, 09:25:32,36.70202,255.300663,820.286932,97.95
915, 09:25:32,36.699219,255.451349,820.941051,97.95
916, 09:25:32,36.680674,255.559067,821.351562,97.95
917, 09:25:32,36.673493,255.726444,821.915483,97.95
918, 09:25:32,36.683673,255.909446,822.632812,97.95
919, 09:25:32,36.662958,256.024384,823.041193,97.95
920, 09:25:32,36.648398,256.225971,822.793324,97.95
921, 09:25:32,36.658026,256.36044,823.068892,97.95
922, 09:25:32,36.642045,256.584754,823.102273,97.95
923, 09:25:32,36.649937,256.708333,824.014205,97.95
924, 09:25:32,36.525726,256.600852,822.684659,97.95
925, 09:25:32,36.408341,256.193774,821.574574,97.95
926, 09:25:32,36.392479,255.840317,820.263494,97.95
927, 09:25:32,36.432292,255.718277,820.795455,97.95
928, 09:25:32,36.505485,255.636719,820.294744,97.95
929, 09:25:32,36.583688,255.636009,820.742188,97.95
930, 09:25:33,36.568261,255.670691,820.916193,97.95
931, 09:25:33,36.600616,255.723722,821.34233,97.95
932, 09:25:33,36.607521,255.692353,821.764915,97.95
933, 09:25:33,36.598485,255.678504,821.295455,97.95
934, 09:25:33,36.578677,255.54285,821.197443,97.95
935, 09:25:33,36.577257,255.415956,820.890625,97.95
936, 09:25:33,36.594894,255.423414,820.463778,97.95
937, 09:25:33,36.62642,255.45928,821.377841,97.95
938, 09:25:33,36.652699,255.527225,821.024148,97.95
939, 09:25:33,36.668916,255.569721,820.779119,97.95
940, 09:25:33,36.689197,255.6817,820.99929,97.95
941, 09:25:33,36.674598,255.77474,821.81321,97.95
942, 09:25:33,36.673493,255.824929,821.648438,97.95
943, 09:25:33,36.67081,255.94188,822.00071,97.95
944, 09:25:33,36.666114,256.064157,821.77983,97.95
945, 09:25:33,36.648753,256.163116,822.208807,97.95
946, 09:25:33,36.653251,256.277462,822.244318,97.95
947, 09:25:33,36.637626,256.348011,822.786932,97.95
948, 09:25:33,36.64753,256.523082,823.022017,97.95
949, 09:25:33,36.638692,256.653764,823.269176,97.95
950, 09:25:33,36.542298,256.534564,822.556818,97.95
951, 09:25:33,36.401476,256.015507,820.402699,97.95
952, 09:25:33,36.369949,255.515625,819.474432,97.95
953, 09:25:33,36.415009,255.18679,818.666193,97.95
954, 09:25:33,36.490372,255.044981,818.698864,97.95
955, 09:25:33,36.548927,254.90625,819.053977,97.95
956, 09:25:33,36.571338,254.839015,818.582386,97.95
957, 09:25:33,36.616241,254.776278,819.447443,97.95
958, 09:25:33,36.640428,254.711056,819.422585,97.95
959, 09:25:33,36.659841,254.602628,819.46804,97.95
960, 09:25:34,36.672664,254.455492,819.244318,97.7
961, 09:25:34,36.643821,254.203243,817.639915,97.7
962, 09:25:34,36.687303,254.158973,818.115767,97.7
963, 09:25:34,36.715317,254.135535,818.09446,97.7
964, 09:25:34,36.746883,254.185724,818.767756,97.7
965, 09:25:34,36.786261,254.223366,819.087358,97.7
966, 09:25:34,36.805161,254.312263,818.953125,97.7
967, 09:25:34,36.799124,254.442827,819.239347,97.7
968, 09:25:34,36.802202,254.539654,819.879972,97.7
969, 09:25:34,36.80011,254.58215,819.700284,97.7
970, 09:25:34,36.803385,254.649266,820.068892,97.7
971, 09:25:34,36.790365,254.738045,819.564631,97.7
972, 09:25:34,36.788984,254.82197,819.551136,97.7
973, 09:25:34,36.763613,254.983073,820.148438,97.7
974, 09:25:34,36.766927,255.05883,820.591619,97.7
975, 09:25:34,36.775923,255.15258,821.21946,97.7
976, 09:25:34,36.762705,255.351089,821.007102,97.7
977, 09:25:34,36.666982,255.160038,820.1875,97.7
978, 09:25:34,36.522017,254.502604,817.526989,97.7
979, 09:25:34,36.520557,254.056937,816.139915,97.7
980, 09:25:34,36.610125,253.609257,816.439631,97.7
981, 09:25:34,36.696141,253.398556,816.840199,97.7
982, 09:25:34,36.758444,253.152225,816.348011,97.7
983, 09:25:34,36.772175,252.96946,816.024148,97.7
984, 09:25:34,36.807371,252.756392,815.52983,97.7
985, 09:25:34,36.837753,252.628788,815.502841,97.7
986, 09:25:34,36.882852,252.491359,815.362926,97.7
987, 09:25:34,36.911813,252.357599,815.608665,97.7
988, 09:25:34,36.913747,252.077415,814.830966,97.7
989, 09:25:34,36.928267,252.006866,814.853693,97.7
990, 09:25:35,36.96733,251.965436,814.784091,97.7
991, 09:25:35,36.98039,251.96295,815.235085,97.7
992, 09:25:35,36.992977,252.001184,815.322443,97.7
993, 09:25:35,37.03705,252.112571,815.65554,97.7
994, 09:25:35,37.045573,252.217685,815.956676,97.7
995, 09:25:35,37.043837,252.275923,815.953835,97.7
996, 09:25:35,37.048217,252.441998,816.234375,97.7
997, 09:25:35,37.050979,252.534091,816.295455,97.7
998, 09:25:35,37.05599,252.632457,816.987926,97.7
999, 09:25:35,37.044152,252.75651,817.070312,97.7
1000, 09:25:35,37.029396,252.885062,817.350142,97.7
1001, 09:25:35,37.031723,253.016572,817.769886,97.7
1002, 09:25:35,37.015546,253.195786,818.015625,97.7
1003, 09:25:35,37.02545,253.353338,818.137074,97.7
1004, 09:25:35,37.032276,253.528646,818.325284,97.7
1005, 09:25:35,36.97242,253.682884,818.583097,97.7
1006, 09:25:35,36.789931,253.18608,816.119318,97.7
1007, 09:25:35,36.705571,252.557528,814.916193,97.7
1008, 09:25:35,36.771307,252.137311,814.264205,97.7
1009, 09:25:35,36.841698,251.912405,814.318182,97.7
1010, 09:25:35,36.899779,251.758049,814.196023,97.7
1011, 09:25:35,36.938644,251.607599,814.102983,97.7
1012, 09:25:35,36.989662,251.444366,813.444602,97.7
1013, 09:25:35,37.019886,251.318182,813.698864,97.7
1014, 09:25:35,37.033381,251.268229,812.975852,97.7
1015, 09:25:35,37.044192,251.19839,813.534091,97.7
1016, 09:25:35,37.057884,251.155658,813.507812,97.7
1017, 09:25:35,37.063802,251.059777,813.267756,97.7
1018, 09:25:35,37.078638,251.045099,813.31321,97.7
1019, 09:25:35,37.098485,251.071496,813.542614,97.7
1020, 09:25:36,37.119318,251.127841,813.721591,97.7
1021, 09:25:36,37.151831,251.265625,814.065341,97.7
1022, 09:25:36,37.155382,251.341146,814.197443,97.7
1023, 09:25:36,37.129104,251.527936,814.71875,97.7
1024, 09:25:36,37.134312,251.626894,815.326705,97.7
1025, 09:25:36,37.140467,251.75947,815.176136,97.7
1026, 09:25:36,37.13447,251.87358,815.289773,97.7
1027, 09:25:36,37.122238,252.017282,815.78267,97.7
1028, 09:25:36,37.126815,252.190578,816.40767,97.7
1029, 09:25:36,37.107284,252.471946,816.911222,97.7
1030, 09:25:36,37.103772,252.577888,817.046875,97.7
1031, 09:25:36,37.101286,252.774503,817.573153,97.7
1032, 09:25:36,37.100063,252.964962,817.821023,97.7
1033, 09:25:36,37.090199,253.121922,818.089489,97.7
1034, 09:25:36,37.079269,253.352391,817.801847,97.7
1035, 09:25:36,37.016217,253.467211,818.175426,97.7
1036, 09:25:36,36.828204,253.137547,816.163352,97.7
1037, 09:25:36,36.738834,252.675781,814.421165,97.7
1038, 09:25:36,36.770399,252.459872,813.605824,97.7
1039, 09:25:36,36.825402,252.330848,814.254972,97.7
1040, 09:25:36,36.879893,252.281723,814.659091,97.7
1041, 09:25:36,36.896425,252.240412,814.65554,97.7
1042, 09:25:36,36.912958,252.226089,814.93892,97.7
1043, 09:25:36,36.927478,252.203835,815.18608,97.7
1044, 09:25:36,36.944287,252.221117,814.721591,97.7
1045, 09:25:36,36.948706,252.247633,815.144886,97.7
1046, 09:25:36,36.936514,252.239465,814.700994,97.7
1047, 09:25:36,36.939749,252.220289,815.455256,97.7
1048, 09:25:36,36.963542,252.200284,815.096591,97.7
1049, 09:25:36,36.990964,252.328007,815.053267,97.7
1050, 09:25:37,37.000592,252.385298,815.49929,97.675
1051, 09:25:37,37.005011,252.528291,816.334517,97.675
1052, 09:25:37,37.003709,252.75071,816.143466,97.675
1053, 09:25:37,37.009272,252.84884,817.394176,97.675
1054, 09:25:37,36.966422,253.065933,816.279119,97.675
1055, 09:25:37,36.971157,253.189986,816.466619,97.675
1056, 09:25:37,36.985717,253.340199,817.132102,97.675
1057, 09:25:37,36.983783,253.476918,817.858665,97.675
1058, 09:25:37,36.956203,253.622869,818.231534,97.675
1059, 09:25:37,36.937816,253.797348,817.954545,97.675
1060, 09:25:37,36.917337,253.959872,818.503551,97.675
1061, 09:25:37,36.917377,254.128078,818.947443,97.675
1062, 09:25:37,36.901318,254.394295,819.18679,97.675
1063, 09:25:37,36.903922,254.573982,820.03196,97.675
1064, 09:25:37,36.904356,254.750473,819.815341,97.675
1065, 09:25:37,36.85101,254.886837,820.244318,97.675
1066, 09:25:37,36.693813,254.629261,818.713068,97.675
1067, 09:25:37,36.599037,254.290483,817.044034,97.675
1068, 09:25:37,36.598761,254.154238,816.695312,97.675
1069, 09:25:37,36.646583,254.135298,817.683949,97.675
1070, 09:25:37,36.681739,254.172585,817.512784,97.675
1071, 09:25:37,36.698311,254.215199,817.81108,97.675
1072, 09:25:37,36.714015,254.224432,817.818182,97.675
1073, 09:25:37,36.732008,254.305398,818.210227,97.675
1074, 09:25:37,36.738834,254.393584,818.725142,97.675
1075, 09:25:37,36.720486,254.404356,818.224432,97.675
1076, 09:25:37,36.720131,254.405185,818.308949,97.675
1077, 09:25:37,36.721039,254.3866,818.62358,97.675
1078, 09:25:37,36.733586,254.512784,818.826705,97.675
1079, 09:25:37,36.737768,254.618608,818.757102,97.675
1080, 09:25:38,36.767914,254.713778,818.765625,97.65
1081, 09:25:38,36.753235,254.854877,819.762784,97.65
1082, 09:25:38,36.75655,255.013021,819.887784,97.65
1083, 09:25:38,36.745581,255.191288,820.190341,97.65
1084, 09:25:38,36.736585,255.271307,820.647727,97.65
1085, 09:25:38,36.697246,255.475734,819.882812,97.65
1086, 09:25:38,36.715238,255.563329,820.590199,97.65
1087, 09:25:38,36.695549,255.736742,820.909091,97.65
1088, 09:25:38,36.683278,255.853812,821.216619,97.65
1089, 09:25:38,36.680161,255.990294,821.774148,97.65
1090, 09:25:38,36.668008,256.168324,821.177557,97.65
1091, 09:25:38,36.668837,256.292495,821.953835,97.65
1092, 09:25:38,36.661182,256.513849,822.611506,97.65
1093, 09:25:38,36.668718,256.758523,822.721591,97.65
1094, 09:25:38,36.598801,256.797822,822.642045,97.65
1095, 09:25:38,36.433002,256.430161,820.504261,97.65
1096, 09:25:38,36.352273,256.167614,819.474432,97.65
1097, 09:25:38,36.383523,256.15767,820.210227,97.65
1098, 09:25:38,36.437382,256.207505,820.225142,97.65
1099, 09:25:38,36.4884,256.317472,821.223011,97.65
1100, 09:25:38,36.511443,256.35535,821.515625,97.65
1101, 09:25:38,36.503709,256.346354,821.50142,97.65
1102, 09:25:38,36.504893,256.448864,821.017045,97.65
1103, 09:25:38,36.506155,256.550663,821.625,97.65
1104, 09:25:38,36.488794,256.566761,821.619318,97.65
1105, 09:25:38,36.480903,256.487216,821.088068,97.65
1106, 09:25:38,36.481613,256.53196,822.055398,97.65
1107, 09:25:38,36.498698,256.674598,822.135653,97.65
1108, 09:25:38,36.532868,256.78705,821.634233,97.65
1109, 09:25:38,36.536143,256.877367,822.460227,97.65
1110, 09:25:39,36.537958,256.999763,822.660511,97.65
1111, 09:25:39,36.545336,257.120857,823.145597,97.65
1112, 09:25:39,36.548295,257.297822,823.363636,97.65
1113, 09:25:39,36.537918,257.428149,823.745028,97.65
1114, 09:25:39,36.525529,257.595526,824.286222,97.65
1115, 09:25:39,36.492109,257.726326,824.369318,97.65
1116, 09:25:39,36.450166,257.830611,823.355824,97.65
1117, 09:25:39,36.453125,257.981534,824.059659,97.65
1118, 09:25:39,36.478378,258.111269,824.809659,97.65
1119, 09:25:39,36.476128,258.311435,824.925426,97.65
1120, 09:25:39,36.468908,258.45928,825.105114,97.65
1121, 09:25:39,36.448785,258.559422,825.708807,97.65
1122, 09:25:39,36.324771,258.410393,824.181108,97.65
1123, 09:25:39,36.21291,258.004735,823.133523,97.65
1124, 09:25:39,36.17294,257.759351,821.908381,97.65
1125, 09:25:39,36.219579,257.814512,822.932528,97.65
1126, 09:25:39,36.261009,257.885298,823.056108,97.65
1127, 09:25:39,36.293284,257.951349,823.62571,97.65
1128, 09:25:39,36.308278,258.027107,823.222301,97.65
1129, 09:25:39,36.328086,258.062382,823.317472,97.65
1130, 09:25:39,36.314118,258.089134,823.18821,97.65
1131, 09:25:39,36.290641,258.064157,823.430398,97.65
1132, 09:25:39,36.284367,258.03776,823.428267,97.65
1133, 09:25:39,36.285472,258.021188,823.695312,97.65
1134, 09:25:39,36.303622,258.062855,823.513494,97.65
1135, 09:25:39,36.317827,258.171283,823.945312,97.65
1136, 09:25:39,36.339449,258.249408,824.235085,97.65
1137, 09:25:39,36.341067,258.456913,824.653409,97.65
1138, 09:25:39,36.330216,258.560251,824.290483,97.65
1139, 09:25:39,36.330611,258.650923,825.039062,97.65
1140, 09:25:40,36.309383,258.753433,824.713778,97.65
1141, 09:25:40,36.311158,258.919744,825.578125,97.65
1142, 09:25:40,36.301452,259.021307,826.107955,97.65
1143, 09:25:40,36.305713,259.176136,826.017045,97.65
1144, 09:25:40,36.287642,259.255445,825.890625,97.65
1145, 09:25:40,36.285985,259.415246,826.539773,97.65
1146, 09:25:40,36.258562,259.530895,826.534801,97.65
1147, 09:25:40,36.229561,259.757812,826.401989,97.65
1148, 09:25:40,36.243253,259.889796,826.651278,97.65
1149, 09:25:40,36.217566,259.943892,826.646307,97.65
1150, 09:25:40,36.074653,259.616951,825.0,97.65
1151, 09:25:40,35.950639,259.280895,823.458097,97.65
1152, 09:25:40,35.947404,259.118253,823.064631,97.65
1153, 09:25:40,35.981455,259.087358,823.299716,97.65
1154, 09:25:40,36.044429,259.129498,824.305398,97.65
1155, 09:25:40,36.071141,259.051965,824.075994,97.65
1156, 09:25:40,36.069721,259.018821,824.070312,97.65
1157, 09:25:40,36.087595,258.980114,824.360795,97.65
1158, 09:25:40,36.091896,258.97455,824.495028,97.65
1159, 09:25:40,36.095407,258.98035,823.941761,97.65
1160, 09:25:40,36.100339,258.974787,824.240767,97.65
1161, 09:25:40,36.117188,258.989347,824.964489,97.65
1162, 09:25:40,36.136679,259.044508,824.673295,97.65
1163, 09:25:40,36.126184,258.98982,823.77983,97.65
1164, 09:25:40,36.142006,259.043442,824.899858,97.65
1165, 09:25:40,36.161616,259.135417,824.744318,97.65
1166, 09:25:40,36.164102,259.185014,825.135653,97.65
1167, 09:25:40,36.149503,259.303149,825.495028,97.65
1168, 09:25:40,36.153172,259.42732,825.828125,97.65
1169, 09:25:40,36.157276,259.547585,825.84517,97.65
1170, 09:25:41,36.148595,259.661695,826.06108,97.65
1171, 09:25:41,36.130169,259.770241,825.81179,97.65
1172, 09:25:41,36.111782,259.908262,826.270597,97.65
1173, 09:25:41,36.120226,260.034446,826.712358,97.65
1174, 09:25:41,36.136758,260.236506,827.265625,97.65
1175, 09:25:41,36.132891,260.410985,827.880682,97.65
1176, 09:25:41,36.132576,260.568182,827.923295,97.65
1177, 09:25:41,36.107284,260.658973,827.558949,97.65
1178, 09:25:41,36.101365,260.895005,827.739347,97.65
1179, 09:25:41,36.043916,260.958452,827.861506,97.65
1180, 09:25:41,35.872869,260.5116,825.646307,97.65
1181, 09:25:41,35.757615,260.094815,824.114347,97.65
1182, 09:25:41,35.771267,259.986151,823.871449,97.65
1183, 09:25:41,35.823114,259.888376,824.889915,97.65
1184, 09:25:41,35.885535,259.979995,824.894176,97.65
1185, 09:25:41,35.896504,259.927675,824.742188,97.65
1186, 09:25:41,35.916351,259.934659,824.840909,97.65
1187, 09:25:41,35.917969,259.939039,825.418324,97.65
1188, 09:25:41,35.930082,259.983902,824.713068,97.65
1189, 09:25:41,35.952612,259.997988,825.723722,97.65
1190, 09:25:41,35.956873,259.987571,825.362926,97.65
1191, 09:25:41,35.959714,259.926491,825.885653,97.65
1192, 09:25:41,35.95636,259.930161,826.112216,97.65
1193, 09:25:41,35.979127,259.988518,825.902699,97.65
1194, 09:25:41,36.007102,260.080019,825.698864,97.65
1195, 09:25:41,36.041785,260.188802,826.683949,97.65
1196, 09:25:41,36.035906,260.240294,826.71733,97.65
1197, 09:25:41,36.021346,260.316406,826.62571,97.65
1198, 09:25:41,36.012666,260.407789,826.489347,97.65
1199, 09:25:41,36.022096,260.506155,827.349432,97.65
1200, 09:25:42,36.013415,260.635417,827.173295,97.675
1201, 09:25:42,36.019255,260.749053,828.053977,97.675
1202, 09:25:42,36.007418,260.883996,827.988636,97.675
1203, 09:25:42,35.989189,260.975142,827.757102,97.675
1204, 09:25:42,35.979206,261.104759,827.864347,97.675
1205, 09:25:42,35.971354,261.281013,828.384943,97.675
1206, 09:25:42,35.955256,261.371449,828.225852,97.675
1207, 09:25:42,35.95277,261.511245,829.078835,97.675
1208, 09:25:42,35.949061,261.722183,829.233665,97.675
1209, 09:25:42,35.924637,261.938684,828.68608,97.675
1210, 09:25:42,35.921204,261.989938,828.348722,97.675
1211, 09:25:42,35.725537,261.554451,827.34375,97.675
1212, 09:25:42,35.594697,261.171875,826.014205,97.675
1213, 09:25:42,35.598682,260.998698,825.96946,97.675
1214, 09:25:42,35.66789,260.993726,825.996449,97.675
1215, 09:25:42,35.70202,260.97017,827.019886,97.675
1216, 09:25:42,35.745581,261.087121,826.78125,97.675
1217, 09:25:42,35.750552,261.092566,826.794034,97.675
1218, 09:25:42,35.750276,261.124408,826.783381,97.675
1219, 09:25:42,35.771346,261.120384,826.992188,97.675
1220, 09:25:42,35.772254,261.09233,827.022727,97.675
1221, 09:25:42,35.760535,261.051018,827.411222,97.675
1222, 09:25:42,35.757852,260.976681,827.203835,97.675
1223, 09:25:42,35.768742,260.962476,826.791903,97.675
1224, 09:25:42,35.762902,261.010772,826.823153,97.675
1225, 09:25:42,35.791943,261.079427,827.502131,97.675
1226, 09:25:42,35.810685,261.189631,826.893466,97.675
1227, 09:25:42,35.851681,261.360914,827.870028,97.675
1228, 09:25:42,35.844342,261.513139,828.050426,97.675
1229, 09:25:42,35.832584,261.581558,828.287642,97.675
1230, 09:25:43,35.824534,261.700876,828.577415,97.95
1231, 09:25:43,35.809383,261.795573,828.463778,97.95
1232, 09:25:43,35.815262,261.904119,828.558239,97.95
1233, 09:25:43,35.804727,261.951586,829.246449,97.95
1234, 09:25:43,35.786774,262.120739,829.400568,97.95
1235, 09:25:43,35.788116,262.169271,829.37642,97.95
1236, 09:25:43,35.787326,262.355824,829.833807,97.95
1237, 09:25:43,35.805911,262.53705,830.333097,97.95
1238, 09:25:43,35.783696,262.639441,830.086648,97.95
1239, 09:25:43,35.783933,262.81108,830.596591,97.95
1240, 09:25:43,35.735874,262.9491,830.089489,97.95
1241, 09:25:43,35.641454,262.830137,829.850142,97.95
1242, 09:25:43,35.467014,262.322917,827.389205,97.95
1243, 09:25:43,35.450087,262.089844,827.445312,97.95
1244, 09:25:43,35.46733,262.050189,827.269886,97.95
1245, 09:25:43,35.524661,262.074455,828.014915,97.95
1246, 09:25:43,35.541193,262.168561,827.647727,97.95
1247, 09:25:43,35.597459,262.258759,827.924716,97.95
1248, 09:25:43,35.585464,262.319839,828.651989,97.95
1249, 09:25:43,35.597262,262.359967,828.546165,97.95
1250, 09:25:43,35.593829,262.326941,828.387784,97.95
1251, 09:25:43,35.574771,262.335109,828.81179,97.95
1252, 09:25:43,35.570076,262.296402,828.178977,97.95
1253, 09:25:43,35.580887,262.358191,829.56108,97.95
1254, 09:25:43,35.593474,262.43383,828.713778,97.95
1255, 09:25:43,35.624605,262.518229,828.995739,97.95
1256, 09:25:43,35.634075,262.529119,828.802557,97.95
1257, 09:25:43,35.653804,262.639441,829.424716,97.95
1258, 09:25:43,35.643308,262.773201,829.755682,97.95
1259, 09:25:43,35.648122,262.829782,830.240057,97.95
1260, 09:25:44,35.64169,262.947325,830.53054,97.95
1261, 09:25:44,35.638613,263.036577,830.770597,97.95
1262, 09:25:44,35.62642,263.131155,830.934659,97.95
1263, 09:25:44,35.624724,263.24633,831.358665,97.95
1264, 09:25:44,35.617661,263.339725,830.990057,97.95
1265, 09:25:44,35.62133,263.443537,831.550426,97.95
1266, 09:25:44,35.618411,263.578243,831.460938,97.95
1267, 09:25:44,35.616043,263.71224,831.895597,97.95
1268, 09:25:44,35.621173,263.849313,832.377131,97.95
1269, 09:25:44,35.590988,263.929688,832.40483,97.95
1270, 09:25:44,35.452494,263.735322,830.815341,97.95
1271, 09:25:44,35.274582,263.347893,829.260653,97.95
1272, 09:25:44,35.287918,263.200876,828.739347,97.95
1273, 09:25:44,35.350813,263.161813,829.110085,97.95
1274, 09:25:44,35.40842,263.227628,829.087358,97.95
1275, 09:25:44,35.445786,263.251184,829.973011,97.95
1276, 09:25:44,35.464291,263.267874,830.198153,97.95
1277, 09:25:44,35.473801,263.245739,830.252841,97.95
1278, 09:25:44,35.482521,263.281842,829.855824,97.95
1279, 09:25:44,35.465238,263.169389,829.942472,97.95
1280, 09:25:44,35.431818,263.152462,829.747159,97.95
1281, 09:25:44,35.439394,263.079545,829.278409,97.95
1282, 09:25:44,35.450836,263.077415,829.566761,97.95
1283, 09:25:44,35.488873,263.221828,830.134943,97.95
1284, 09:25:44,35.500868,263.293797,830.37358,97.95
1285, 09:25:44,35.515388,263.371449,830.617898,97.95
1286, 09:25:44,35.527857,263.434422,831.086648,97.95
1287, 09:25:44,35.519137,263.519531,830.921165,97.95
1288, 09:25:44,35.493253,263.559777,830.605824,97.95
1289, 09:25:44,35.497711,263.657907,831.214489,97.95
1290, 09:25:45,35.492188,263.798532,831.379261,97.95
1291, 09:25:45,35.495818,263.914062,831.901989,97.95
1292, 09:25:45,35.475103,263.970289,831.84446,97.95
1293, 09:25:45,35.489347,264.046638,831.848011,97.95
1294, 09:25:45,35.492819,264.147017,831.879261,97.95
1295, 09:25:45,35.485204,264.241596,832.520597,97.95
1296, 09:25:45,35.480429,264.346117,832.553977,97.95
1297, 09:25:45,35.42369,264.372396,832.430398,97.95
1298, 09:25:45,35.272293,263.976444,830.279119,97.95
1299, 09:25:45,35.156092,263.580492,828.767045,97.95
1300, 09:25:45,35.158381,263.291903,828.615057,97.95
1301, 09:25:45,35.211963,263.298295,828.326705,97.95
1302, 09:25:45,35.280698,263.180634,828.362216,97.95
1303, 09:25:45,35.307607,263.20786,828.684659,97.95
1304, 09:25:45,35.336253,263.139441,828.714489,97.95
1305, 09:25:45,35.348169,263.063447,828.951705,97.95
1306, 09:25:45,35.366122,263.091264,828.820312,97.95
1307, 09:25:45,35.379459,263.037997,828.912642,97.95
1308, 09:25:45,35.379301,262.938565,828.639915,97.95
1309, 09:25:45,35.390625,262.846117,829.0,97.95
1310, 09:25:45,35.40408,262.747751,828.421165,97.95
1311, 09:25:45,35.431187,262.762311,828.605114,97.95
1312, 09:25:45,35.462753,262.771307,829.036932,97.95
1313, 09:25:45,35.490294,262.857244,829.370739,97.95
1314, 09:25:45,35.507063,262.875829,829.706676,97.95
1315, 09:25:45,35.521701,262.99929,829.882102,97.95
1316, 09:25:45,35.501973,263.067472,830.021307,97.95
1317, 09:25:45,35.504538,263.157552,829.976562,97.95
1318, 09:25:45,35.498067,263.233783,829.979403,97.95
1319, 09:25:45,35.499092,263.298414,830.429688,97.95
1320, 09:25:46,35.496765,263.346828,830.81392,97.975
1321, 09:25:46,35.48911,263.429451,830.630682,97.975
1322, 09:25:46,35.496133,263.540009,831.026989,97.975
1323, 09:25:46,35.495068,263.645241,831.149858,97.975
1324, 09:25:46,35.485795,263.687973,831.039773,97.975
1325, 09:25:46,35.47526,263.799834,831.648438,97.975
1326, 09:25:46,35.366832,263.706084,830.120028,97.975
1327, 09:25:46,35.204861,263.082386,829.275568,97.975
1328, 09:25:46,35.183199,262.689276,827.448153,97.975
1329, 09:25:46,35.244713,262.446259,826.731534,97.975
1330, 09:25:46,35.306226,262.350971,827.145597,97.975
1331, 09:25:46,35.357402,262.272491,827.34517,97.975
1332, 09:25:46,35.379261,262.148201,827.627841,97.975
1333, 09:25:46,35.421993,261.957741,827.266335,97.975
1334, 09:25:46,35.457978,261.913707,826.879972,97.975
1335, 09:25:46,35.474787,261.816406,827.049006,97.975
1336, 09:25:46,35.487453,261.70857,826.575284,97.975
1337, 09:25:46,35.492858,261.529711,826.703835,97.975
1338, 09:25:46,35.493056,261.310133,826.227273,97.975
1339, 09:25:46,35.539852,261.222301,825.953125,97.975
1340, 09:25:46,35.568221,261.275213,826.083097,97.975
1341, 09:25:46,35.601602,261.326113,827.056108,97.975
1342, 09:25:46,35.626263,261.370739,826.525568,97.975
1343, 09:25:46,35.636758,261.420691,826.916193,97.975
1344, 09:25:46,35.632142,261.492069,827.009233,97.975
1345, 09:25:46,35.634549,261.514915,827.31392,97.975
1346, 09:25:46,35.634785,261.63447,827.204545,97.975
1347, 09:25:46,35.64678,261.699337,828.008523,97.975
1348, 09:25:46,35.645636,261.788707,827.965199,97.975
1349, 09:25:46,35.658262,261.88009,827.803267,97.975
1350, 09:25:47,35.610125,261.885772,828.502131,97.975
1351, 09:25:47,35.628867,261.996922,829.205966,97.975
1352, 09:25:47,35.631866,262.139441,828.705966,97.975
1353, 09:25:47,35.649384,262.259233,829.328125,97.975
1354, 09:25:47,35.633444,262.384706,829.089489,97.975
1355, 09:25:47,35.614781,262.466027,829.671165,97.975
1356, 09:25:47,35.446378,262.085819,827.304688,97.975
1357, 09:25:47,35.33215,261.554214,825.09517,97.975
1358, 09:25:47,35.33574,261.23544,824.733665,97.975
1359, 09:25:47,35.430122,261.042732,825.477983,97.975
1360, 09:25:47,35.487966,260.935961,825.274858,97.975
1361, 09:25:47,35.543048,260.842211,825.453835,97.975
1362, 09:25:47,35.561987,260.665601,825.050426,97.975
1363, 09:25:47,35.597538,260.52983,825.727273,97.975
1364, 09:25:47,35.635101,260.342803,825.028409,97.975
1365, 09:25:47,35.65771,260.306937,824.736506,97.975
1366, 09:25:47,35.655974,260.23402,824.333097,97.975
1367, 09:25:47,35.680003,260.055161,825.086648,97.975
1368, 09:25:47,35.689986,259.996094,824.757812,97.975
1369, 09:25:47,35.727194,259.984138,824.919034,97.975
1370, 09:25:47,35.746686,260.011364,825.161932,97.975
1371, 09:25:47,35.775095,260.048769,825.065341,97.975
1372, 09:25:47,35.781605,260.034209,825.333097,97.975
1373, 09:25:47,35.799045,260.133404,825.916903,97.975
1374, 09:25:47,35.797072,260.196141,825.753551,97.975
1375, 09:25:47,35.802991,260.288234,826.073153,97.975
1376, 09:25:47,35.789536,260.384706,825.791193,97.975
1377, 09:25:47,35.767558,260.362334,825.884233,97.975
1378, 09:25:47,35.772333,260.460464,825.785511,97.975
1379, 09:25:47,35.757063,260.569484,825.740767,97.975
1380, 09:25:48,35.753038,260.689512,826.122869,97.975
1381, 09:25:48,35.750671,260.833452,827.071733,97.975
1382, 09:25:48,35.741596,260.970052,826.96804,97.975
1383, 09:25:48,35.746409,261.177675,827.81321,97.975
1384, 09:25:48,35.769413,261.319129,827.690341,97.975
1385, 09:25:48,35.719894,261.414418,827.568892,97.975
1386, 09:25:48,35.560724,261.034446,825.547585,97.975
1387, 09:25:48,35.461095,260.617661,824.674716,97.975
1388, 09:25:48,35.496528,260.315814,823.832386,97.975
1389, 09:25:48,35.562461,260.167022,824.976562,97.975
1390, 09:25:48,35.621567,260.11044,824.085938,97.975
1391, 09:25:48,35.655816,259.980232,824.213778,97.975
1392, 09:25:48,35.66931,259.937855,824.149858,97.975
1393, 09:25:48,35.69184,259.935843,824.419034,97.975
1394, 09:25:48,35.713384,259.898201,824.352273,97.975
1395, 09:25:48,35.69113,259.822917,824.073864,97.975
1396, 09:25:48,35.716304,259.755445,824.356534,97.975
1397, 09:25:48,35.727865,259.668916,824.760653,97.975
1398, 09:25:48,35.728378,259.715909,824.045455,97.975
1399, 09:25:48,35.793521,259.75509,825.328835,97.975
1400, 09:25:48,35.813447,259.830019,825.323864,97.975
1401, 09:25:48,35.824732,259.8866,825.390625,97.975
1402, 09:25:48,35.850379,259.992898,825.204545,97.975
1403, 09:25:48,35.856061,260.075284,825.480114,97.975
1404, 09:25:48,35.851089,260.134233,825.40483,97.975
1405, 09:25:48,35.849432,260.252367,826.460227,97.975
1406, 09:25:48,35.839844,260.328243,826.216619,97.975
1407, 09:25:48,35.828243,260.435488,826.539062,97.975
1408, 09:25:48,35.831992,260.567945,826.330966,97.975
1409, 09:25:48,35.829979,260.688329,827.34304,97.975
1410, 09:25:49,35.823745,260.871804,827.230824,97.975
1411, 09:25:49,35.830926,260.97242,827.962358,97.975
1412, 09:25:49,35.830808,261.104167,827.926136,97.975
1413, 09:25:49,35.817314,261.297585,828.629261,97.975
1414, 09:25:49,35.766217,261.277817,827.857244,97.975
1415, 09:25:49,35.604324,260.813447,825.940341,97.975
1416, 09:25:49,35.525726,260.38589,824.198864,97.975
1417, 09:25:49,35.5567,260.155895,824.017756,97.975
1418, 09:25:49,35.633641,260.010298,823.862926,97.975
1419, 09:25:49,35.69914,259.943063,823.976562,97.975
1420, 09:25:49,35.72601,259.825284,824.605114,97.975
1421, 09:25:49,35.741596,259.797704,824.260653,97.975
1422, 09:25:49,35.753275,259.836529,824.21804,97.975
1423, 09:25:49,35.768387,259.838778,824.924716,97.975
1424, 09:25:49,35.776081,259.769058,824.889915,97.975
1425, 09:25:49,35.773635,259.693537,824.507812,97.975
1426, 09:25:49,35.766177,259.450521,823.578125,97.975
1427, 09:25:49,35.792377,259.518703,824.359375,97.975
1428, 09:25:49,35.821023,259.530303,824.517045,97.975
1429, 09:25:49,35.848682,259.601918,824.622869,97.975
1430, 09:25:49,35.86699,259.684304,825.321733,97.975
1431, 09:25:49,35.851641,259.74858,825.096591,97.975
1432, 09:25:49,35.853733,259.820668,825.560369,97.975
1433, 09:25:49,35.858546,259.925071,825.766335,97.975
1434, 09:25:49,35.843789,260.015743,825.838778,97.975
1435, 09:25:49,35.852509,260.069366,825.81108,97.975
1436, 09:25:49,35.84596,260.133049,825.678977,97.975
1437, 09:25:49,35.839331,260.227746,825.846591,97.975
1438, 09:25:49,35.820865,260.359375,826.036932,97.975
1439, 09:25:49,35.810133,260.418087,826.005682,97.975
1440, 09:25:50,35.812263,260.613873,826.410511,97.975
1441, 09:25:50,35.823666,260.7442,827.450994,97.975
1442, 09:25:50,35.776121,260.781013,825.975852,97.975
1443, 09:25:50,35.578559,260.239465,824.024858,97.975
1444, 09:25:50,35.542337,259.765743,823.316051,97.975
1445, 09:25:50,35.56538,259.413944,822.387074,97.975
1446, 09:25:50,35.627604,259.142282,822.50142,97.975
1447, 09:25:50,35.722577,259.091501,823.145597,97.975
1448, 09:25:50,35.762942,259.018466,822.923295,97.975
1449, 09:25:50,35.799874,258.913352,822.704545,97.975
1450, 09:25:50,35.817393,258.758049,822.670455,97.975
1451, 09:25:50,35.835819,258.637666,822.368608,97.975
1452, 09:25:50,35.846749,258.561553,822.204545,97.975
1453, 09:25:50,35.840751,258.398674,821.448864,97.975
1454, 09:25:50,35.859612,258.305161,821.106534,97.975
1455, 09:25:50,35.886679,258.233902,821.568182,97.975
1456, 09:25:50,35.932055,258.147491,822.319602,97.975
1457, 09:25:50,35.95056,258.228575,822.266335,97.975
1458, 09:25:50,35.968158,258.24633,822.841619,97.975
1459, 09:25:50,35.985204,258.319721,822.608665,97.975
1460, 09:25:50,35.985835,258.398793,822.503551,97.975
1461, 09:25:50,35.970131,258.474313,823.127131,97.975
1462, 09:25:50,35.968829,258.503078,823.149148,97.975
1463, 09:25:50,35.960977,258.578007,823.618608,97.975
1464, 09:25:50,35.969381,258.739583,823.53125,97.975
1465, 09:25:50,35.970683,258.779001,823.333097,97.975
1466, 09:25:50,35.966817,258.880563,823.914062,97.975
1467, 09:25:50,35.969145,258.982718,823.78267,97.975
1468, 09:25:50,35.947325,259.091027,823.634233,97.975
1469, 09:25:50,35.940578,259.254498,824.765625,97.975
1470, 09:25:51,35.935803,259.414891,824.654119,98.0
1471, 09:25:51,35.912958,259.484138,824.825284,98.0
1472, 09:25:51,35.765704,259.126184,823.083807,98.0
1473, 09:25:51,35.65842,258.514086,821.743608,98.0
1474, 09:25:51,35.673769,258.048769,820.181818,98.0
1475, 09:25:51,35.759904,257.750355,819.894176,98.0
1476, 09:25:51,35.846354,257.565104,819.84233,98.0
1477, 09:25:51,35.915601,257.411577,819.852983,98.0
1478, 09:25:51,35.956045,257.240294,820.075284,98.0
1479, 09:25:51,35.982481,256.969697,819.485795,98.0
1480, 09:25:51,36.019452,256.861861,819.617188,98.0
1481, 09:25:51,36.034683,256.740412,820.013494,98.0
1482, 09:25:51,36.047427,256.6134,819.575284,98.0
1483, 09:25:51,36.083491,256.464015,819.690341,98.0
1484, 09:25:51,36.100734,256.317827,819.105824,98.0
1485, 09:25:51,36.128827,256.278527,818.773438,98.0
1486, 09:25:51,36.163116,256.251184,819.461648,98.0
1487, 09:25:51,36.194405,256.354522,819.024858,98.0
1488, 09:25:51,36.191327,256.351918,819.105824,98.0
1489, 09:25:51,36.205729,256.379498,819.518466,98.0
1490, 09:25:51,36.205571,256.445786,820.504261,98.0
1491, 09:25:51,36.199061,256.546046,820.318892,98.0
1492, 09:25:51,36.21583,256.671638,820.137784,98.0
1493, 09:25:51,36.226878,256.758759,821.089489,98.0
1494, 09:25:51,36.225182,256.862571,820.519176,98.0
1495, 09:25:51,36.214725,256.929214,820.865057,98.0
1496, 09:25:51,36.200442,257.09517,821.329545,98.0
1497, 09:25:51,36.197167,257.198509,821.850142,98.0
1498, 09:25:51,36.198232,257.348958,821.911932,98.0
1499, 09:25:51,36.199061,257.495857,821.864347,98.0
1500, 09:25:52,36.186158,257.622869,821.700284,98.025
1501, 09:25:52,36.181503,257.858428,822.178977,98.025
1502, 09:25:52,36.133325,257.918442,822.200994,98.025
1503, 09:25:52,36.004261,257.586648,820.954545,98.025
1504, 09:25:52,35.860243,256.906013,818.285511,98.025
1505, 09:25:52,35.894176,256.265388,817.46733,98.025
1506, 09:25:52,36.00292,255.999763,818.024148,98.025
1507, 09:25:52,36.095762,255.813329,817.397017,98.025
1508, 09:25:52,36.150687,255.69259,817.578835,98.025
1509, 09:25:52,36.187027,255.491477,817.494318,98.025
1510, 09:25:52,36.219421,255.291312,817.816051,98.025
1511, 09:25:52,36.245423,255.180398,817.284091,98.025
1512, 09:25:52,36.257891,255.038352,817.366477,98.025
1513, 09:25:52,36.268269,254.861624,816.723722,98.025
1514, 09:25:52,36.293955,254.69768,816.348011,98.025
1515, 09:25:52,36.314394,254.500947,816.275568,98.025
1516, 09:25:52,36.334162,254.419626,815.622869,98.025
1517, 09:25:52,36.362571,254.437145,815.441051,98.025
1518, 09:25:52,36.389126,254.553741,816.637784,98.025
1519, 09:25:52,36.392992,254.653409,816.732955,98.025
1520, 09:25:52,36.41785,254.740294,816.728693,98.025
1521, 09:25:52,36.427596,254.830611,816.84446,98.025
1522, 09:25:52,36.418048,254.88009,817.933949,98.025
1523, 09:25:52,36.434659,254.966856,817.448864,98.025
1524, 09:25:52,36.423808,255.105705,817.682528,98.025
1525, 09:25:52,36.397727,255.189867,817.767045,98.025
1526, 09:25:52,36.388494,255.263968,817.745739,98.025
1527, 09:25:52,36.403725,255.484375,818.838068,98.025
1528, 09:25:52,36.378748,255.538234,818.635653,98.025
1529, 09:25:52,36.38297,255.746449,818.785511,98.025
1530, 09:25:53,36.378985,255.915365,818.804688,98.0
1531, 09:25:53,36.364189,256.051847,819.572443,98.0
1532, 09:25:53,36.366675,256.224077,819.378551,98.0
1533, 09:25:53,36.335977,256.384825,820.21804,98.0
1534, 09:25:53,36.184028,255.964489,818.09375,98.0
1535, 09:25:53,36.091935,255.357718,816.643466,98.0
1536, 09:25:53,36.148635,254.811908,815.732244,98.0
1537, 09:25:53,36.240215,254.581913,815.286932,98.0
1538, 09:25:53,36.333491,254.522727,816.002841,98.0
1539, 09:25:53,36.389757,254.481297,816.62358,98.0
1540, 09:25:53,36.418442,254.320194,816.151278,98.0
1541, 09:25:53,36.43166,254.289773,816.488636,98.0
1542, 09:25:53,36.42511,254.267282,815.973011,98.0
1543, 09:25:53,36.427754,254.16205,816.054688,98.0
1544, 09:25:53,36.420533,253.990767,815.15483,98.0
1545, 09:25:53,36.432528,253.786222,814.734375,98.0
1546, 09:25:53,36.464291,253.75509,815.291903,98.0
1547, 09:25:53,36.50947,253.761364,815.508523,98.0
1548, 09:25:53,36.556345,253.87642,816.122159,98.0
1549, 09:25:53,36.569839,253.893229,815.848011,98.0
1550, 09:25:53,36.531368,254.026397,815.578835,98.0
1551, 09:25:53,36.553622,254.178859,816.203835,98.0
1552, 09:25:53,36.544665,254.260417,816.474432,98.0
1553, 09:25:53,36.54214,254.344223,816.741477,98.0
1554, 09:25:53,36.54435,254.362689,816.875,98.0
1555, 09:25:53,36.546717,254.453125,816.974432,98.0
1556, 09:25:53,36.545218,254.607718,817.65767,98.0
1557, 09:25:53,36.529356,254.730114,817.431818,98.0
1558, 09:25:53,36.539812,254.813565,817.56321,98.0
1559, 09:25:53,36.52979,255.031605,818.022017,98.0
1560, 09:25:54,36.539773,255.215436,818.559659,98.025
1561, 09:25:54,36.52399,255.386837,818.926136,98.025
1562, 09:25:54,36.476286,255.445431,819.004972,98.025
1563, 09:25:54,36.340436,255.076231,817.147727,98.025
1564, 09:25:54,36.267243,254.386009,814.43821,98.025
1565, 09:25:54,36.302636,253.875237,814.245739,98.025
1566, 09:25:54,36.390467,253.613163,814.102273,98.025
1567, 09:25:54,36.461727,253.495502,815.015625,98.025
1568, 09:25:54,36.504182,253.388968,814.776989,98.025
1569, 09:25:54,36.52979,253.286813,814.368608,98.025
1570, 09:25:54,36.555713,253.243845,814.258523,98.025
1571, 09:25:54,36.563802,253.261955,814.762074,98.025
1572, 09:25:54,36.560054,253.161222,814.134943,98.025
1573, 09:25:54,36.570234,253.002841,813.803977,98.025
1574, 09:25:54,36.588818,252.841264,813.746449,98.025
1575, 09:25:54,36.621725,252.795573,814.68821,98.025
1576, 09:25:54,36.646346,252.832978,813.773438,98.025
1577, 09:25:54,36.670455,252.885417,814.355114,98.025
1578, 09:25:54,36.677281,252.982126,814.310369,98.025
1579, 09:25:54,36.677754,253.081558,814.611506,98.025
1580, 09:25:54,36.698587,253.258168,815.046165,98.025
1581, 09:25:54,36.672506,253.428977,815.230114,98.025
1582, 09:25:54,36.68971,253.559659,815.764205,98.025
1583, 09:25:54,36.664733,253.719105,815.93679,98.025
1584, 09:25:54,36.680161,253.816525,816.149148,98.025
1585, 09:25:54,36.669942,253.932647,816.595881,98.025
1586, 09:25:54,36.672625,254.033499,816.763494,98.025
1587, 09:25:54,36.660748,254.173059,817.336648,98.025
1588, 09:25:54,36.668955,254.374763,817.319602,98.025
1589, 09:25:54,36.654553,254.551728,817.924006,98.025
1590, 09:25:55,36.633759,254.753551,817.694602,98.05
1591, 09:25:55,36.624448,254.916903,818.475852,98.05
1592, 09:25:55,36.483783,254.595289,816.736506,98.05
1593, 09:25:55,36.361111,253.835227,814.715909,98.05
1594, 09:25:55,36.393545,253.137547,812.924716,98.05
1595, 09:25:55,36.461372,252.795573,813.060369,98.05
1596, 09:25:55,36.557094,252.667495,812.922585,98.05
1597, 09:25:55,36.610559,252.508286,812.822443,98.05
1598, 09:25:55,36.638455,252.33866,812.71946,98.05
1599, 09:25:55,36.649108,252.164181,813.129972,98.05
1600, 09:25:55,36.680477,252.081203,812.353693,98.05
1601, 09:25:55,36.71512,251.97017,812.596591,98.05
1602, 09:25:55,36.733191,251.862453,812.03267,98.05
1603, 09:25:55,36.744634,251.659091,811.877841,98.05
1604, 09:25:55,36.775647,251.484612,812.171875,98.05
1605, 09:25:55,36.804096,251.479995,812.149858,98.05
1606, 09:25:55,36.839883,251.547112,811.74858,98.05
1607, 09:25:55,36.85827,251.617424,812.852273,98.05
1608, 09:25:55,36.866241,251.66785,812.901989,98.05
1609, 09:25:55,36.865215,251.752367,813.147727,98.05
1610, 09:25:55,36.867779,251.89027,813.145597,98.05
1611, 09:25:55,36.863045,252.037524,813.225142,98.05
1612, 09:25:55,36.802872,252.18892,813.09375,98.05
1613, 09:25:55,36.826665,252.320904,813.539062,98.05
1614, 09:25:55,36.840317,252.440459,813.867188,98.05
1615, 09:25:55,36.823232,252.579072,814.056818,98.05
1616, 09:25:55,36.822719,252.667969,814.101562,98.05
1617, 09:25:55,36.800781,252.812855,814.604403,98.05
1618, 09:25:55,36.814867,252.929924,814.849432,98.05
1619, 09:25:55,36.787405,253.094697,814.894886,98.05
1620, 09:25:56,36.791588,253.310369,815.705966,98.05
1621, 09:25:56,36.767164,253.533026,816.31179,98.05
1622, 09:25:56,36.703086,253.646662,816.21804,98.05
1623, 09:25:56,36.514283,253.015862,813.34233,98.05
1624, 09:25:56,36.478851,252.326705,812.3125,98.05
1625, 09:25:56,36.540878,251.75,810.1875,98.05
1626, 09:25:56,36.656526,251.493253,810.62429,98.05
1627, 09:25:56,36.706321,251.294626,810.887074,98.05
1628, 09:25:56,36.745384,251.115412,810.945312,98.05
1629, 09:25:56,36.778212,250.96437,810.28054,98.05
1630, 09:25:56,36.806266,250.789536,810.058239,98.05
1631, 09:25:56,36.842842,250.665365,809.915483,98.05
1632, 09:25:56,36.859414,250.538471,809.807528,98.05
1633, 09:25:56,36.872869,250.354877,810.194602,98.05
1634, 09:25:56,36.897885,250.263258,809.681818,98.05
1635, 09:25:56,36.917061,250.154593,809.259943,98.05
1636, 09:25:56,36.977628,250.175781,809.338778,98.05
1637, 09:25:56,36.975971,250.224313,810.016335,98.05
1638, 09:25:56,36.987808,250.309541,810.291903,98.05
1639, 09:25:56,36.99345,250.428741,810.52983,98.05
1640, 09:25:56,37.01673,250.526515,810.653409,98.05
1641, 09:25:56,37.003788,250.628788,810.75,98.05
1642, 09:25:56,37.003551,250.7616,810.674716,98.05
1643, 09:25:56,36.946457,250.977154,811.047585,98.05
1644, 09:25:56,36.971749,251.056818,811.235795,98.05
1645, 09:25:56,36.995265,251.184186,812.264205,98.05
1646, 09:25:56,36.989662,251.334991,812.018466,98.05
1647, 09:25:56,36.97605,251.486861,812.264915,98.05
1648, 09:25:56,36.963187,251.720999,813.209517,98.05
1649, 09:25:56,36.95932,251.812145,813.429688,98.05
1650, 09:25:57,36.947956,252.036103,813.432528,98.05
1651, 09:25:57,36.937539,252.194247,813.773438,98.05
1652, 09:25:57,36.929096,252.393348,814.166903,98.05
1653, 09:25:57,36.892243,252.561671,814.554688,98.05
1654, 09:25:57,36.726247,252.147491,812.546875,98.05
1655, 09:25:57,36.655224,251.516809,810.600852,98.05
1656, 09:25:57,36.724708,251.050071,810.272017,98.05
1657, 09:25:57,36.820865,250.8125,810.213068,98.05
1658, 09:25:57,36.876697,250.636719,810.206676,98.05
1659, 09:25:57,36.914812,250.54652,810.568892,98.05
1660, 09:25:57,36.924164,250.465672,810.399148,98.05
1661, 09:25:57,36.977904,250.380208,810.198864,98.05
1662, 09:25:57,36.990294,250.286222,810.09233,98.05
1663, 09:25:57,36.989465,250.186671,809.787642,98.05
1664, 09:25:57,36.989662,249.981297,809.353693,98.05
1665, 09:25:57,37.008562,249.884115,809.25071,98.05
1666, 09:25:57,37.04431,249.824219,809.564631,98.05
1667, 09:25:57,37.075442,249.840436,809.721591,98.05
1668, 09:25:57,37.075994,249.862926,809.97017,98.05
1669, 09:25:57,37.089055,249.913471,810.142756,98.05
1670, 09:25:57,37.110559,250.024858,809.964489,98.05
1671, 09:25:57,37.123303,250.149266,810.25071,98.05
1672, 09:25:57,37.110125,250.31901,810.269176,98.05
1673, 09:25:57,37.10977,250.415956,811.15483,98.05
1674, 09:25:57,37.087871,250.547704,810.200994,98.05
1675, 09:25:57,37.105429,250.700758,810.875,98.05
1676, 09:25:57,37.090593,250.783617,811.264205,98.05
1677, 09:25:57,37.098524,250.881747,811.827415,98.05
1678, 09:25:57,37.080295,251.011245,811.587358,98.05
1679, 09:25:57,37.065814,251.179451,812.568182,98.05
1680, 09:25:58,37.086806,251.395833,813.411932,98.025
1681, 09:25:58,37.071023,251.550189,813.264205,98.025
1682, 09:25:58,37.054727,251.689276,813.658381,98.025
1683, 09:25:58,37.010417,251.805871,813.5,98.025
1684, 09:25:58,36.839804,251.323864,810.519886,98.025
1685, 09:25:58,36.791351,250.75,809.71875,98.025
1686, 09:25:58,36.862453,250.275331,808.924716,98.025
1687, 09:25:58,36.931068,250.147372,809.435369,98.025
1688, 09:25:58,37.005919,250.110559,809.018466,98.025
1689, 09:25:58,37.027462,250.075284,809.653409,98.025
1690, 09:25:58,37.05958,250.038116,809.950284,98.025
1691, 09:25:58,37.090475,250.034209,810.014915,98.025
1692, 09:25:58,37.103575,249.943774,810.145597,98.025
1693, 09:25:58,37.101641,249.872159,809.829545,98.025
1694, 09:25:58,37.099156,249.708452,809.324574,98.025
1695, 09:25:58,37.102352,249.567945,808.990057,98.025
1696, 09:25:58,37.132773,249.54652,809.574574,98.025
1697, 09:25:58,37.163234,249.66205,809.960938,98.025
1698, 09:25:58,37.181581,249.7384,809.762784,98.025
1699, 09:25:58,37.188486,249.867543,810.239347,98.025
1700, 09:25:58,37.183436,249.960346,810.017756,98.025
1701, 09:25:58,37.197601,250.112689,811.440341,98.025
1702, 09:25:58,37.166233,250.146425,810.713778,98.025
1703, 09:25:58,37.161695,250.244081,810.833807,98.025
1704, 09:25:58,37.159564,250.371212,810.914773,98.025
1705, 09:25:58,37.113991,250.582031,810.631392,98.025
1706, 09:25:58,37.135417,250.702652,811.193182,98.025
1707, 09:25:58,37.144413,250.850379,812.014205,98.025
1708, 09:25:58,37.133878,250.981652,811.591619,98.025
1709, 09:25:58,37.132655,251.145123,812.421875,98.025
1710, 09:25:59,37.136837,251.357008,812.914773,98.05
1711, 09:25:59,37.119279,251.627723,813.71804,98.05
1712, 09:25:59,37.035077,251.598603,813.09446,98.05
1713, 09:25:59,36.885417,250.980114,810.627841,98.05
1714, 09:25:59,36.869239,250.342093,809.134943,98.05
1715, 09:25:59,36.936001,249.940578,808.62642,98.05
1716, 09:25:59,37.016651,249.773438,808.62642,98.05
1717, 09:25:59,37.053188,249.665246,808.698864,98.05
1718, 09:25:59,37.07485,249.448982,808.807528,98.05
1719, 09:25:59,37.117898,249.315814,808.661932,98.05
1720, 09:25:59,37.151752,249.267756,808.612216,98.05
1721, 09:25:59,37.174992,249.188802,808.709517,98.05
1722, 09:25:59,37.181779,249.082268,808.141335,98.05
1723, 09:25:59,37.205058,248.99349,808.364347,98.05
1724, 09:25:59,37.230863,248.904238,808.581676,98.05
1725, 09:25:59,37.253235,248.861979,808.731534,98.05
1726, 09:25:59,37.284485,248.921165,808.822443,98.05
1727, 09:25:59,37.295336,249.003433,809.176847,98.05
1728, 09:25:59,37.304096,249.105469,808.888494,98.05
1729, 09:25:59,37.32047,249.213305,809.117898,98.05
1730, 09:25:59,37.307331,249.274266,809.634233,98.05
1731, 09:25:59,37.302636,249.435843,810.049716,98.05
1732, 09:25:59,37.296283,249.543205,809.693892,98.05
1733, 09:25:59,37.284407,249.671402,810.059659,98.05
1734, 09:25:59,37.275134,249.864228,809.608665,98.05
1735, 09:25:59,37.276278,250.02107,810.56108,98.05
1736, 09:25:59,37.239426,250.233428,810.707386,98.05
1737, 09:25:59,37.261443,250.333097,811.285511,98.05
1738, 09:25:59,37.255445,250.529593,811.56392,98.05
1739, 09:25:59,37.238084,250.641335,811.46733,98.05
1740, 09:26:00,37.25,250.856534,812.355114,98.05
1741, 09:26:00,37.23114,251.06321,812.441761,98.05
1742, 09:26:00,37.182134,251.156723,812.610795,98.05
1743, 09:26:00,36.998816,250.701941,810.086648,98.05
1744, 09:26:00,36.930516,250.024976,808.448153,98.05
1745, 09:26:00,36.994358,249.43383,807.358665,98.05
1746, 09:26:00,37.069918,249.223958,807.71875,98.05
1747, 09:26:00,37.148319,249.060961,807.15554,98.05
1748, 09:26:00,37.190657,248.90625,807.46875,98.05
1749, 09:26:00,37.217961,248.663352,806.977273,98.05
1750, 09:26:00,37.240767,248.477983,807.325284,98.05
1751, 09:26:00,37.291864,248.368016,807.239347,98.05
1752, 09:26:00,37.312737,248.278172,806.796875,98.05
1753, 09:26:00,37.314789,248.154593,806.978693,98.05
1754, 09:26:00,37.330295,248.052912,807.158381,98.05
1755, 09:26:00,37.336884,247.993608,806.632102,98.05
1756, 09:26:00,37.365254,247.984493,806.62571,98.05
1757, 09:26:00,37.40917,248.065578,807.56108,98.05
1758, 09:26:00,37.415562,248.117424,806.980114,98.05
1759, 09:26:00,37.442156,248.224669,808.018466,98.05
1760, 09:26:00,37.435054,248.290009,807.927557,98.05
1761, 09:26:00,37.432528,248.417377,807.941761,98.05
1762, 09:26:00,37.450994,248.596828,808.305398,98.05
1763, 09:26:00,37.456084,248.710109,808.962358,98.05
1764, 09:26:00,37.452454,248.842211,808.740767,98.05
1765, 09:26:00,37.420021,248.944721,809.259233,98.05
1766, 09:26:00,37.421599,249.095289,808.963778,98.05
1767, 09:26:00,37.372751,249.306226,809.112926,98.05
1768, 09:26:00,37.364978,249.474669,809.299716,98.05
1769, 09:26:00,37.373935,249.627959,809.995028,98.05
1770, 09:26:01,37.363281,249.795336,810.257812,98.075
1771, 09:26:01,37.38735,250.072562,811.674006,98.075
1772, 09:26:01,37.376105,250.36553,812.116477,98.075
1773, 09:26:01,37.350931,250.516335,812.146307,98.075
1774, 09:26:01,37.226444,250.290601,810.891335,98.075
1775, 09:26:01,37.086016,249.57197,808.619318,98.075
1776, 09:26:01,37.100734,249.054096,807.691051,98.075
1777, 09:26:01,37.181108,248.722775,807.97017,98.075
1778, 09:26:01,37.239386,248.53492,807.351562,98.075
1779, 09:26:01,37.289339,248.405895,807.154119,98.075
1780, 09:26:01,37.328086,248.274029,806.575994,98.075
1781, 09:26:01,37.353022,248.114938,806.252131,98.075
1782, 09:26:01,37.369831,247.970762,806.617188,98.075
1783, 09:26:01,37.406842,247.858783,806.817472,98.075
1784, 09:26:01,37.424321,247.742188,806.541193,98.075
1785, 09:26:01,37.429056,247.61482,806.336648,98.075
1786, 09:26:01,37.464449,247.502249,806.047585,98.075
1787, 09:26:01,37.483191,247.483191,805.987216,98.075
1788, 09:26:01,37.51965,247.523438,806.106534,98.075
1789, 09:26:01,37.532828,247.518466,806.642045,98.075
1790, 09:26:01,37.546046,247.688802,806.897017,98.075
1791, 09:26:01,37.557686,247.877131,807.606534,98.075
1792, 09:26:01,37.554609,247.955966,807.525568,98.075
1793, 09:26:01,37.563329,248.059777,807.662642,98.075
1794, 09:26:01,37.547861,248.231179,808.034801,98.075
1795, 09:26:01,37.541982,248.307765,808.559659,98.075
1796, 09:26:01,37.535866,248.345762,808.554688,98.075
1797, 09:26:01,37.515349,248.519058,808.628551,98.075
1798, 09:26:01,37.489386,248.746567,807.567472,98.075
1799, 09:26:01,37.517914,248.92732,808.524148,98.075
1800, 09:26:02,37.509233,249.111506,808.950284,98.075
1801, 09:26:02,37.492858,249.315223,810.692472,98.075
1802, 09:26:02,37.526397,249.487334,811.205256,98.075
1803, 09:26:02,37.501499,249.709991,810.84233,98.075
1804, 09:26:02,37.46587,249.924124,810.854403,98.075
1805, 09:26:02,37.355745,249.656723,809.971591,98.075
1806, 09:26:02,37.243884,249.122751,807.398438,98.075
1807, 09:26:02,37.263889,248.490057,807.0625,98.075
1808, 09:26:02,37.339449,248.273556,807.510653,98.075
1809, 09:26:02,37.399029,248.155895,807.014915,98.075
1810, 09:26:02,37.450718,248.070904,807.610085,98.075
1811, 09:26:02,37.467053,247.987334,806.980824,98.075
1812, 09:26:02,37.488715,247.939157,807.012784,98.075
1813, 09:26:02,37.515901,247.887192,807.166903,98.075
1814, 09:26:02,37.522096,247.773674,807.002841,98.075
1815, 09:26:02,37.517637,247.719105,806.894176,98.075
1816, 09:26:02,37.541114,247.599195,806.566761,98.075
1817, 09:26:02,37.573864,247.554451,806.215909,98.075
1818, 09:26:02,37.609414,247.585346,807.100142,98.075
1819, 09:26:02,37.619752,247.629143,807.209517,98.075
1820, 09:26:02,37.642716,247.698035,807.861506,98.075
1821, 09:26:02,37.615609,247.763021,807.47017,98.075
1822, 09:26:02,37.623856,247.871567,807.757812,98.075
1823, 09:26:02,37.627683,247.965909,807.920455,98.075
1824, 09:26:02,37.63155,248.121449,807.973011,98.075
1825, 09:26:02,37.607718,248.331203,809.191761,98.075
1826, 09:26:02,37.610559,248.389915,808.526989,98.075
1827, 09:26:02,37.613242,248.578362,808.794034,98.075
1828, 09:26:02,37.598801,248.716856,809.647727,98.075
1829, 09:26:02,37.557094,248.916548,809.485085,98.075
1830, 09:26:03,37.54794,249.060961,809.439631,98.1
1831, 09:26:03,37.552241,249.276515,809.747159,98.1
1832, 09:26:03,37.542653,249.403054,809.796165,98.1
1833, 09:26:03,37.549282,249.564986,810.824574,98.1
1834, 09:26:03,37.493924,249.652225,810.578125,98.1
1835, 09:26:03,37.31613,249.071496,808.573864,98.1
1836, 09:26:03,37.275055,248.504616,806.817472,98.1
1837, 09:26:03,37.362295,248.187263,806.828125,98.1
1838, 09:26:03,37.427162,247.976089,806.569602,98.1
1839, 09:26:03,37.509509,247.917259,807.335938,98.1
1840, 09:26:03,37.535985,247.794034,806.866477,98.1
1841, 09:26:03,37.570628,247.709044,806.583807,98.1
1842, 09:26:03,37.592527,247.600497,806.537642,98.1
1843, 09:26:03,37.597262,247.537524,806.674006,98.1
1844, 09:26:03,37.613715,247.497396,806.620739,98.1
1845, 09:26:03,37.621804,247.390033,806.558949,98.1
1846, 09:26:03,37.627999,247.320549,806.204545,98.1
1847, 09:26:03,37.659525,247.229048,806.325994,98.1
1848, 09:26:03,37.683909,247.308357,806.821733,98.1
1849, 09:26:03,37.688447,247.319602,807.258523,98.1
1850, 09:26:03,37.709754,247.476799,807.565341,98.1
1851, 09:26:03,37.718513,247.64607,807.776989,98.1
1852, 09:26:03,37.713621,247.754498,807.794034,98.1
1853, 09:26:03,37.708767,247.882457,807.772017,98.1
1854, 09:26:03,37.704861,248.005682,808.0,98.1
1855, 09:26:03,37.683594,248.157315,808.418324,98.1
1856, 09:26:03,37.679569,248.256984,808.237926,98.1
1857, 09:26:03,37.685369,248.42732,809.24858,98.1
1858, 09:26:03,37.674124,248.610914,809.475142,98.1
1859, 09:26:03,37.675742,248.882812,809.961648,98.1
1860, 09:26:04,37.605271,249.089489,809.764205,98.1
1861, 09:26:04,37.631668,249.226918,810.381392,98.1
1862, 09:26:04,37.627328,249.416548,810.612926,98.1
1863, 09:26:04,37.612453,249.698627,811.59517,98.1
1864, 09:26:04,37.591304,249.868608,811.87358,98.1
1865, 09:26:04,37.472696,249.650095,810.332386,98.1
1866, 09:26:04,37.341738,248.855232,807.915483,98.1
1867, 09:26:04,37.342211,248.395005,806.864347,98.1
1868, 09:26:04,37.430911,248.099077,806.566051,98.1
1869, 09:26:04,37.507694,247.905658,807.627131,98.1
1870, 09:26:04,37.547151,247.811435,806.683949,98.1
1871, 09:26:04,37.587358,247.609612,807.12358,98.1
1872, 09:26:04,37.617345,247.433475,805.723011,98.1
1873, 09:26:04,37.656842,247.358783,806.385653,98.1
1874, 09:26:04,37.678109,247.276752,806.299716,98.1
1875, 09:26:04,37.667219,247.178267,806.09233,98.1
1876, 09:26:04,37.677557,247.035985,806.440341,98.1
1877, 09:26:04,37.702652,246.973011,806.551136,98.1
1878, 09:26:04,37.736032,246.984138,806.140625,98.1
1879, 09:26:04,37.761679,247.059186,806.71875,98.1
1880, 09:26:04,37.765152,247.157197,806.909091,98.1
1881, 09:26:04,37.788668,247.241477,807.707386,98.1
1882, 09:26:04,37.779869,247.33866,807.310369,98.1
1883, 09:26:04,37.779238,247.50438,807.449574,98.1
1884, 09:26:04,37.785196,247.589489,807.909091,98.1
1885, 09:26:04,37.764205,247.716856,807.491477,98.1
1886, 09:26:04,37.764126,247.888968,807.941761,98.1
1887, 09:26:04,37.752644,248.076113,808.206676,98.1
1888, 09:26:04,37.754182,248.202888,808.830966,98.1
1889, 09:26:04,37.732599,248.338897,809.564631,98.1
1890, 09:26:05,37.733783,248.552675,809.764915,98.15
1891, 09:26:05,37.688329,248.851918,809.480824,98.15
1892, 09:26:05,37.674953,248.987926,810.012784,98.15
1893, 09:26:05,37.679135,249.157197,810.090909,98.15
1894, 09:26:05,37.682213,249.414062,810.856534,98.15
1895, 09:26:05,37.666746,249.60393,811.00142,98.15
1896, 09:26:05,37.644295,249.796993,811.307528,98.15
1897, 09:26:05,37.512902,249.609257,810.78054,98.15
1898, 09:26:05,37.33724,248.992306,807.823153,98.15
1899, 09:26:05,37.348761,248.487571,806.394176,98.15
1900, 09:26:05,37.430043,248.271188,807.459517,98.15
1901, 09:26:05,37.510338,248.096828,806.987216,98.15
1902, 09:26:05,37.554175,247.93383,806.946733,98.15
1903, 09:26:05,37.553977,247.761364,806.678977,98.15
1904, 09:26:05,37.576823,247.573745,806.274858,98.15
1905, 09:26:05,37.611624,247.428149,806.088778,98.15
1906, 09:26:05,37.638613,247.341501,806.134233,98.15
1907, 09:26:05,37.635535,247.254143,806.206676,98.15
1908, 09:26:05,37.660156,247.209162,805.939631,98.15
1909, 09:26:05,37.681542,247.169152,805.588778,98.15
1910, 09:26:05,37.706637,247.200402,805.941051,98.15
1911, 09:26:05,37.733033,247.275805,806.81392,98.15
1912, 09:26:05,37.768505,247.384115,806.810369,98.15
1913, 09:26:05,37.757655,247.419744,807.115057,98.15
1914, 09:26:05,37.742779,247.490175,806.685369,98.15
1915, 09:26:05,37.735677,247.529474,806.696733,98.15
1916, 09:26:05,37.721946,247.676728,806.872869,98.15
1917, 09:26:05,37.719618,247.844934,807.507102,98.15
1918, 09:26:05,37.721394,248.021188,808.172585,98.15
1919, 09:26:05,37.746646,248.331795,809.121449,98.15
1920, 09:26:06,37.738676,248.469342,808.992188,98.15
1921, 09:26:06,37.728575,248.661103,808.898438,98.15
1922, 09:26:06,37.662997,248.831795,808.601562,98.15
1923, 09:26:06,37.678188,248.966856,809.664773,98.15
1924, 09:26:06,37.660906,249.129025,809.708807,98.15
1925, 09:26:06,37.673453,249.318182,809.775568,98.15
1926, 09:26:06,37.673808,249.564986,810.432528,98.15
1927, 09:26:06,37.661024,249.779948,811.054688,98.15
1928, 09:26:06,37.66572,250.057765,811.667614,98.15
1929, 09:26:06,37.564315,249.948627,811.228693,98.15
1930, 09:26:06,37.406605,249.435251,808.151278,98.15
1931, 09:26:06,37.381076,249.057055,808.382102,98.15
1932, 09:26:06,37.443813,248.675189,807.548295,98.15
1933, 09:26:06,37.512074,248.543797,808.765625,98.15
1934, 09:26:06,37.553464,248.524503,808.618608,98.15
1935, 09:26:06,37.581558,248.453954,807.902699,98.15
1936, 09:26:06,37.586411,248.392756,808.365057,98.15
1937, 09:26:06,37.612295,248.415009,808.262784,98.15
1938, 09:26:06,37.635259,248.377841,807.954545,98.15
1939, 09:26:06,37.632852,248.267401,808.252131,98.15
1940, 09:26:06,37.638534,248.145715,807.956676,98.15
1941, 09:26:06,37.67148,248.09304,808.18892,98.15
1942, 09:26:06,37.683633,248.091146,807.617898,98.15
1943, 09:26:06,37.71366,248.176018,808.547585,98.15
1944, 09:26:06,37.730824,248.280066,808.419034,98.15
1945, 09:26:06,37.734888,248.382221,809.097301,98.15
1946, 09:26:06,37.736466,248.506747,809.458097,98.15
1947, 09:26:06,37.736269,248.67803,809.644886,98.15
1948, 09:26:06,37.725339,248.787287,810.075994,98.15
1949, 09:26:06,37.707071,248.915246,810.059659,98.15
1950, 09:26:07,37.70056,248.999882,809.794744,98.15
1951, 09:26:07,37.684817,249.122159,810.693182,98.15
1952, 09:26:07,37.676689,249.28196,810.853693,98.15
1953, 09:26:07,37.629182,249.462831,810.839489,98.15
1954, 09:26:07,37.65696,249.619081,811.771307,98.15
1955, 09:26:07,37.652344,249.773319,811.338778,98.15
1956, 09:26:07,37.641927,249.927202,811.117188,98.15
1957, 09:26:07,37.643505,250.136009,811.59446,98.15
1958, 09:26:07,37.6381,250.336174,812.764205,98.15
1959, 09:26:07,37.610598,250.506984,812.87429,98.15
1960, 09:26:07,37.484848,250.371686,811.616477,98.15
1961, 09:26:07,37.380919,249.888494,809.822443,98.15
1962, 09:26:07,37.381313,249.534091,808.951705,98.15
1963, 09:26:07,37.441485,249.30741,808.804688,98.15
1964, 09:26:07,37.517124,249.285748,809.40767,98.15
1965, 09:26:07,37.547072,249.211293,810.122869,98.15
1966, 09:26:07,37.551136,249.194602,809.670455,98.15
1967, 09:26:07,37.565775,249.158499,809.757812,98.15
1968, 09:26:07,37.574061,249.16205,809.642756,98.15
1969, 09:26:07,37.581045,249.110559,809.848011,98.15
1970, 09:26:07,37.57852,248.996922,809.37358,98.15
1971, 09:26:07,37.562461,248.778291,808.794744,98.15
1972, 09:26:07,37.561671,248.779238,809.101562,98.15
1973, 09:26:07,37.629459,248.957505,809.733665,98.15
1974, 09:26:07,37.669586,249.079782,809.396307,98.15
1975, 09:26:07,37.664418,249.216738,810.31179,98.15
1976, 09:26:07,37.662366,249.282079,810.004972,98.15
1977, 09:26:07,37.655421,249.432173,810.612926,98.15
1978, 09:26:07,37.652975,249.598603,810.818892,98.15
1979, 09:26:07,37.654317,249.735204,811.340199,98.15
1980, 09:26:08,37.622672,249.826823,811.443892,98.15
1981, 09:26:08,37.622238,249.975142,811.62358,98.15
1982, 09:26:08,37.619594,250.118726,812.303267,98.15
1983, 09:26:08,37.634983,250.328717,812.608665,98.15
1984, 09:26:08,37.55962,250.491359,812.056108,98.15
1985, 09:26:08,37.568142,250.641927,812.581676,98.15
1986, 09:26:08,37.567787,250.76965,812.919034,98.15
1987, 09:26:08,37.558239,250.93608,813.454545,98.15
1988, 09:26:08,37.557528,251.120975,813.171875,98.15
1989, 09:26:08,37.448311,251.053741,812.890625,98.15
1990, 09:26:08,37.317274,250.550781,810.767756,98.15
1991, 09:26:08,37.305753,250.051255,809.574574,98.15
1992, 09:26:08,37.359572,249.770952,809.727983,98.15
1993, 09:26:08,37.441209,249.6366,810.146307,98.15
1994, 09:26:08,37.478101,249.561671,810.245028,98.15
1995, 09:26:08,37.505524,249.432765,810.585227,98.15
1996, 09:26:08,37.512863,249.303267,809.700284,98.15
1997, 09:26:08,37.551255,249.19401,809.885653,98.15
1998, 09:26:08,37.56613,249.16714,809.627841,98.15
1999, 09:26:08,37.571891,249.050426,809.521307,98.15
2000, 09:26:08,37.580098,248.979403,810.044034,98.15
2001, 09:26:08,37.58574,248.890743,809.722301,98.15
2002, 09:26:08,37.620423,248.881629,809.732955,98.15
2003, 09:26:08,37.645833,248.940341,809.931818,98.15
2004, 09:26:08,37.666114,249.033381,810.00142,98.15
2005, 09:26:08,37.684107,249.155066,810.464489,98.15
2006, 09:26:08,37.690972,249.23911,810.267045,98.15
2007, 09:26:08,37.679806,249.321615,810.310369,98.15
2008, 09:26:08,37.689276,249.393584,810.602983,98.15
2009, 09:26:08,37.692866,249.586648,811.355114,98.15
2010, 09:26:09,37.666312,249.721946,811.65554,98.2
2011, 09:26:09,37.661735,249.811908,812.127131,98.2
2012, 09:26:09,37.666864,249.993963,811.952415,98.2
2013, 09:26:09,37.657473,250.173177,812.144176,98.2
2014, 09:26:09,37.626539,250.251302,812.09304,98.2
2015, 09:26:09,37.580729,250.436316,811.651989,98.2
2016, 09:26:09,37.601918,250.65992,812.601562,98.2
2017, 09:26:09,37.610322,250.879261,813.428977,98.2
2018, 09:26:09,37.600497,251.075639,813.794744,98.2
2019, 09:26:09,37.578638,251.206558,814.299006,98.2
2020, 09:26:09,37.425071,250.907315,812.09446,98.2
2021, 09:26:09,37.281013,250.265862,809.575284,98.2
2022, 09:26:09,37.316525,249.831203,809.390625,98.2
2023, 09:26:09,37.383089,249.66063,809.529119,98.2
2024, 09:26:09,37.447838,249.531013,809.992898,98.2
2025, 09:26:09,37.509391,249.354403,809.74858,98.2
2026, 09:26:09,37.525687,249.200639,808.828835,98.2
2027, 09:26:09,37.54869,249.020597,809.146307,98.2
2028, 09:26:09,37.599116,248.925189,809.178977,98.2
2029, 09:26:09,37.607165,248.805398,809.147727,98.2
2030, 09:26:09,37.62642,248.709754,808.65625,98.2
2031, 09:26:09,37.63514,248.626065,809.418324,98.2
2032, 09:26:09,37.649345,248.580611,808.696733,98.2
2033, 09:26:09,37.659091,248.580019,808.803977,98.2
2034, 09:26:09,37.676413,248.616832,808.970881,98.2
2035, 09:26:09,37.700994,248.661695,808.75142,98.2
2036, 09:26:09,37.695589,248.782315,809.253551,98.2
2037, 09:26:09,37.69839,248.886364,808.900568,98.2
2038, 09:26:09,37.715317,249.0058,809.543324,98.2
2039, 09:26:09,37.714725,249.155066,810.072443,98.2
2040, 09:26:10,37.697325,249.258168,810.381392,98.2
2041, 09:26:10,37.706203,249.400331,810.90767,98.2
2042, 09:26:10,37.708373,249.567827,810.821733,98.2
2043, 09:26:10,37.698153,249.727983,811.572443,98.2
2044, 09:26:10,37.673335,249.886955,811.807528,98.2
2045, 09:26:10,37.670297,250.08428,812.170455,98.2
2046, 09:26:10,37.636798,250.335582,811.709517,98.2
2047, 09:26:10,37.649582,250.544389,812.658381,98.2
2048, 09:26:10,37.648477,250.724787,812.973722,98.2
2049, 09:26:10,37.635101,250.874527,813.417614,98.2
2050, 09:26:10,37.635062,251.157079,814.263494,98.2
2051, 09:26:10,37.59884,251.336766,814.233665,98.2
2052, 09:26:10,37.481297,251.232718,813.620739,98.2
2053, 09:26:10,37.322759,250.596591,810.803977,98.2
2054, 09:26:10,37.269413,250.116477,810.119318,98.2
2055, 09:26:10,37.337476,250.007221,809.81321,98.2
2056, 09:26:10,37.411379,249.933475,810.384943,98.2
2057, 09:26:10,37.452375,249.897846,810.324574,98.2
2058, 09:26:10,37.462161,249.840554,810.705256,98.2
2059, 09:26:10,37.467014,249.752841,810.409091,98.2
2060, 09:26:10,37.50142,249.684659,810.113636,98.2
2061, 09:26:10,37.502959,249.643348,810.354403,98.2
2062, 09:26:10,37.506944,249.614583,809.934659,98.2
2063, 09:26:10,37.531566,249.538352,810.386364,98.2
2064, 09:26:10,37.542416,249.493253,810.152699,98.2
2065, 09:26:10,37.566288,249.593277,810.198864,98.2
2066, 09:26:10,37.604995,249.6308,810.784801,98.2
2067, 09:26:10,37.616675,249.685251,811.088778,98.2
2068, 09:26:10,37.612532,249.824811,811.116477,98.2
2069, 09:26:10,37.611782,249.906842,811.145597,98.2
2070, 09:26:11,37.607836,250.048414,810.986506,98.225
2071, 09:26:11,37.599235,250.170336,811.590199,98.225
2072, 09:26:11,37.601484,250.333333,811.426136,98.225
2073, 09:26:11,37.600576,250.392637,812.324574,98.225
2074, 09:26:11,37.576547,250.537879,811.778409,98.225
2075, 09:26:11,37.58795,250.700876,812.821733,98.225
2076, 09:26:11,37.568221,250.826349,813.233665,98.225
2077, 09:26:11,37.507023,251.06179,813.200284,98.225
2078, 09:26:11,37.529396,251.166785,813.316051,98.225
2079, 09:26:11,37.53997,251.334399,813.838778,98.225
2080, 09:26:11,37.55453,251.573627,814.583807,98.225
2081, 09:26:11,37.536656,251.728812,814.509233,98.225
2082, 09:26:11,37.527975,251.924834,814.807528,98.225
2083, 09:26:11,37.451547,252.032197,815.090909,98.225
2084, 09:26:11,37.277857,251.58357,812.50142,98.225
2085, 09:26:11,37.212713,251.237571,811.732244,98.225
2086, 09:26:11,37.248816,251.079782,811.816761,98.225
2087, 09:26:11,37.311908,251.03563,811.796165,98.225
2088, 09:26:11,37.35902,251.022135,811.914062,98.225
2089, 09:26:11,37.363755,250.954427,812.422585,98.225
2090, 09:26:11,37.382142,250.91063,811.84446,98.225
2091, 09:26:11,37.384509,250.920573,812.145597,98.225
2092, 09:26:11,37.408617,250.996686,811.957386,98.225
2093, 09:26:11,37.401791,250.966264,812.53054,98.225
2094, 09:26:11,37.395676,250.910038,812.323864,98.225
2095, 09:26:11,37.41785,250.926373,812.538352,98.225
2096, 09:26:11,37.439394,250.949811,812.292614,98.225
2097, 09:26:11,37.453243,250.996094,812.368608,98.225
2098, 09:26:11,37.466343,251.079901,812.897017,98.225
2099, 09:26:11,37.458136,251.19259,813.226562,98.225
2100, 09:26:12,37.465712,251.29581,813.260653,98.225
2101, 09:26:12,37.481337,251.471473,814.18679,98.225
2102, 09:26:12,37.439512,251.595999,814.024858,98.225
2103, 09:26:12,37.431029,251.702652,814.068182,98.225
2104, 09:26:12,37.442314,251.899384,814.336648,98.225
2105, 09:26:12,37.428977,252.034564,814.678977,98.225
2106, 09:26:12,37.431779,252.188329,815.325994,98.225
2107, 09:26:12,37.41935,252.351799,815.642045,98.225
2108, 09:26:12,37.356574,252.546993,814.870028,98.225
2109, 09:26:12,37.367779,252.692353,815.37571,98.225
2110, 09:26:12,37.379972,252.851562,816.53267,98.225
2111, 09:26:12,37.379893,253.027462,816.585227,98.225
2112, 09:26:12,37.374369,253.202652,816.965909,98.225
2113, 09:26:12,37.353259,253.386009,817.421165,98.225
2114, 09:26:12,37.19259,253.205611,815.458097,98.225
2115, 09:26:12,37.049045,252.703007,813.939631,98.225
2116, 09:26:12,37.032473,252.442116,812.385653,98.225
2117, 09:26:12,37.088778,252.265388,813.728693,98.225
2118, 09:26:12,37.142006,252.160866,813.141335,98.225
2119, 09:26:12,37.186948,252.087831,813.694602,98.225
2120, 09:26:12,37.199968,252.102746,813.707386,98.225
2121, 09:26:12,37.214173,251.98911,813.642045,98.225
2122, 09:26:12,37.234967,251.937855,813.28054,98.225
2123, 09:26:12,37.230311,251.908736,813.233665,98.225
2124, 09:26:12,37.241043,251.892164,812.989347,98.225
2125, 09:26:12,37.239504,251.797585,812.961648,98.225
2126, 09:26:12,37.261719,251.753433,813.159801,98.225
2127, 09:26:12,37.282,251.758404,813.78054,98.225
2128, 09:26:12,37.314867,251.867424,814.215909,98.225
2129, 09:26:12,37.327415,251.976562,814.680398,98.225
2130, 09:26:13,37.362926,252.150805,814.444602,97.975
2131, 09:26:13,37.368568,252.287524,815.858665,97.975
2132, 09:26:13,37.358467,252.328717,815.460938,97.975
2133, 09:26:13,37.350616,252.45857,815.384943,97.975
2134, 09:26:13,37.337082,252.583688,815.294744,97.975
2135, 09:26:13,37.328362,252.735559,815.65483,97.975
2136, 09:26:13,37.327691,252.833452,815.759233,97.975
2137, 09:26:13,37.335464,252.995502,816.899148,97.975
2138, 09:26:13,37.33432,253.147372,816.972301,97.975
2139, 09:26:13,37.27178,253.372633,816.855114,97.975
2140, 09:26:13,37.27474,253.522609,816.703835,97.975
2141, 09:26:13,37.267164,253.644768,816.689631,97.975
2142, 09:26:13,37.274661,253.815933,817.452415,97.975
2143, 09:26:13,37.294231,254.054569,818.046165,97.975
2144, 09:26:13,37.274029,254.180516,819.034801,97.975
2145, 09:26:13,37.257931,254.37133,818.739347,97.975
2146, 09:26:13,37.120384,254.310014,817.502131,97.975
2147, 09:26:13,36.968158,253.759588,814.799006,97.975
2148, 09:26:13,36.92661,253.383049,814.193182,97.975
2149, 09:26:13,36.969776,253.274384,814.68608,97.975
2150, 09:26:13,37.029238,253.20277,814.722301,97.975
2151, 09:26:13,37.053464,253.192116,815.203835,97.975
2152, 09:26:13,37.077691,253.114228,815.137074,97.975
2153, 09:26:13,37.086174,253.012784,814.752841,97.975
2154, 09:26:13,37.109533,252.975379,814.176136,97.975
2155, 09:26:13,37.139323,252.929332,815.229403,97.975
2156, 09:26:13,37.13301,252.883404,814.337358,97.975
2157, 09:26:13,37.142124,252.8241,814.444602,97.975
2158, 09:26:13,37.171638,252.80232,814.484375,97.975
2159, 09:26:13,37.194918,252.761837,814.639205,97.975
2160, 09:26:14,37.206045,252.843513,814.96733,97.975
2161, 09:26:14,37.216185,252.913707,816.138494,97.975
2162, 09:26:14,37.204743,252.955137,815.222301,97.975
2163, 09:26:14,37.204072,252.998106,815.539773,97.975
2164, 09:26:14,37.203875,253.096946,816.070312,97.975
2165, 09:26:14,37.178701,253.208452,816.208097,97.975
2166, 09:26:14,37.1991,253.341619,816.015625,97.975
2167, 09:26:14,37.180358,253.455848,815.715199,97.975
2168, 09:26:14,37.175189,253.576705,816.534091,97.975
2169, 09:26:14,37.179766,253.735795,816.951705,97.975
2170, 09:26:14,37.13664,253.846946,815.703835,97.975
2171, 09:26:14,37.145084,253.968395,816.952415,97.975
2172, 09:26:14,37.154317,254.19401,817.581676,97.975
2173, 09:26:14,37.154632,254.350734,818.064631,97.975
2174, 09:26:14,37.141651,254.48982,818.580966,97.975
2175, 09:26:14,37.13739,254.672112,818.660511,97.975
2176, 09:26:14,37.12646,254.852865,818.861506,97.975
2177, 09:26:14,37.120857,255.038234,819.272017,97.975
2178, 09:26:14,37.051097,255.12867,819.12429,97.975
2179, 09:26:14,36.888534,254.768348,817.166903,97.975
2180, 09:26:14,36.800979,254.383523,815.965909,97.975
2181, 09:26:14,36.843277,254.270833,816.136364,97.975
2182, 09:26:14,36.908539,254.236506,816.649148,97.975
2183, 09:26:14,36.963384,254.224905,816.9375,97.975
2184, 09:26:14,36.977943,254.243963,816.997869,97.975
2185, 09:26:14,37.001854,254.220526,817.053267,97.975
2186, 09:26:14,37.026515,254.241477,816.769886,97.975
2187, 09:26:14,37.034722,254.183239,817.230114,97.975
2188, 09:26:14,37.016572,254.112216,817.090909,97.975
2189, 09:26:14,37.020123,254.04285,817.271307,97.975
2190, 09:26:15,37.011048,253.955492,816.471591,97.975
2191, 09:26:15,37.040286,254.005327,817.060369,97.975
2192, 09:26:15,37.054885,254.035866,817.06179,97.975
2193, 09:26:15,37.078243,254.085582,817.379972,97.975
2194, 09:26:15,37.094697,254.202178,817.488636,97.975
2195, 09:26:15,37.10389,254.308357,817.648438,97.975
2196, 09:26:15,37.102352,254.424953,818.49858,97.975
2197, 09:26:15,37.085859,254.528409,818.551136,97.975
2198, 09:26:15,37.091264,254.612334,818.404119,97.975
2199, 09:26:15,37.074929,254.66134,818.462358,97.975
2200, 09:26:15,37.061395,254.795928,818.372159,97.975
2201, 09:26:15,37.027896,254.985204,817.871449,97.975
2202, 09:26:15,37.045652,255.074929,818.852983,97.975
2203, 09:26:15,37.026949,255.175071,818.982244,97.975
2204, 09:26:15,37.021307,255.295455,819.463068,97.975
2205, 09:26:15,37.008286,255.468987,819.660511,97.975
2206, 09:26:15,37.027817,255.644058,819.699574,97.975
2207, 09:26:15,37.023674,255.799242,820.872159,97.975
2208, 09:26:15,37.002289,255.945786,820.725852,97.975
2209, 09:26:15,36.908736,255.823272,820.022017,97.975
2210, 09:26:15,36.745699,255.403291,817.837358,97.975
2211, 09:26:15,36.715317,255.069721,817.154119,97.975
2212, 09:26:15,36.764875,254.948982,817.040483,97.975
2213, 09:26:15,36.813368,254.915009,817.768466,97.975
2214, 09:26:15,36.838187,254.880563,817.644176,97.975
2215, 09:26:15,36.878314,254.839015,818.017045,97.975
2216, 09:26:15,36.889126,254.816051,817.921875,97.975
2217, 09:26:15,36.905066,254.80232,817.759943,97.975
2218, 09:26:15,36.900726,254.749053,817.0,97.975
2219, 09:26:15,36.886443,254.668797,817.257102,97.975
2220, 09:26:16,36.885969,254.591146,817.038352,97.975
2221, 09:26:16,36.896701,254.584517,817.330966,97.975
2222, 09:26:16,36.925545,254.617543,817.463778,97.975
2223, 09:26:16,36.956716,254.696851,818.007812,97.975
2224, 09:26:16,36.974747,254.795455,818.019886,97.975
2225, 09:26:16,36.984257,254.91063,818.389915,97.975
2226, 09:26:16,36.985204,254.999171,817.887074,97.975
2227, 09:26:16,36.977391,255.06759,818.323153,97.975
2228, 09:26:16,36.967448,255.134351,818.553267,97.975
2229, 09:26:16,36.983191,255.233665,819.22017,97.975
2230, 09:26:16,36.966935,255.370028,819.606534,97.975
2231, 09:26:16,36.964094,255.447206,820.100852,97.975
2232, 09:26:16,36.934541,255.694247,819.370028,97.975
2233, 09:26:16,36.945036,255.790601,820.169744,97.975
2234, 09:26:16,36.93529,255.932292,820.25,97.975
2235, 09:26:16,36.95131,256.092093,820.680398,97.975
2236, 09:26:16,36.935803,256.215554,821.108665,97.975
2237, 09:26:16,36.923335,256.413471,821.284801,97.975
2238, 09:26:16,36.915365,256.542495,821.558949,97.975
2239, 09:26:16,36.871488,256.631984,821.732244,97.975
2240, 09:26:16,36.744081,256.366241,820.31108,97.975
2241, 09:26:16,36.587871,255.845052,818.075994,97.975
2242, 09:26:16,36.596117,255.499527,817.409091,97.975
2243, 09:26:16,36.646859,255.369555,817.62358,97.975
2244, 09:26:16,36.729127,255.297704,817.81179,97.975
2245, 09:26:16,36.745975,255.217093,818.007102,97.975
2246, 09:26:16,36.782473,255.113991,818.181108,97.975
