frame_index,timestamp,R,G,B,average_SpO2
0, 09:25:02,40.051926,267.302083,890.713068,97.6
1, 09:25:02,39.958925,267.664654,890.459517,97.6
2, 09:25:02,40.0189,267.695431,891.62429,97.6
3, 09:25:02,40.061119,267.820194,891.506392,97.6
4, 09:25:02,40.099077,267.949219,892.166903,97.6
5, 09:25:02,40.107955,267.871686,891.5625,97.6
6, 09:25:02,40.087555,267.96295,891.081676,97.6
7, 09:25:02,40.113281,268.09884,892.161222,97.6
8, 09:25:02,40.152817,268.086766,893.029119,97.6
9, 09:25:02,40.149937,268.251894,893.048295,97.6
10, 09:25:02,40.149897,268.399029,893.195312,97.6
11, 09:25:02,40.170928,268.499527,893.681818,97.6
12, 09:25:02,40.189433,268.581558,894.384233,97.6
13, 09:25:02,40.200363,268.691525,894.22017,97.6
14, 09:25:02,40.20423,268.77983,894.360795,97.6
15, 09:25:02,40.193142,268.883878,894.056108,97.6
16, 09:25:02,40.22455,269.051018,894.808949,97.6
17, 09:25:02,40.214725,269.130445,895.015625,97.6
18, 09:25:02,40.209833,269.264441,895.228693,97.6
19, 09:25:02,40.121804,269.193063,894.81179,97.6
20, 09:25:02,39.855903,268.491004,890.329545,97.6
21, 09:25:02,39.766138,268.025213,888.691051,97.6
22, 09:25:02,39.814828,267.960582,889.922585,97.6
23, 09:25:02,39.867898,267.921402,890.119318,97.6
24, 09:25:02,39.904869,267.82919,890.59446,97.6
25, 09:25:02,39.924558,267.695076,889.755682,97.6
26, 09:25:02,39.917693,267.474669,889.370739,97.6
27, 09:25:02,39.968395,267.428385,889.178267,97.6
28, 09:25:02,39.988518,267.388849,889.517756,97.6
29, 09:25:02,39.998185,267.326468,889.711648,97.6
30, 09:25:03,40.007418,267.191761,889.534091,97.65
31, 09:25:03,39.840988,265.93821,881.691761,97.65
32, 09:25:03,39.858546,265.935488,882.189631,97.65
33, 09:25:03,39.881905,265.960109,882.047585,97.65
34, 09:25:03,39.894452,265.968395,882.546165,97.65
35, 09:25:03,39.921717,266.125,883.264205,97.65
36, 09:25:03,39.922901,266.124763,882.919034,97.65
37, 09:25:03,39.927478,266.187263,882.899148,97.65
38, 09:25:03,39.921204,266.221473,882.919744,97.65
39, 09:25:03,39.929411,266.257457,882.823153,97.65
40, 09:25:03,39.942669,266.379143,883.595881,97.65
41, 09:25:03,39.932252,266.405185,883.289062,97.65
42, 09:25:03,39.954822,266.504143,883.879972,97.65
43, 09:25:03,39.949613,266.582268,884.095881,97.65
44, 09:25:03,39.964252,266.720881,884.27983,97.65
45, 09:25:03,39.960859,266.840436,884.673295,97.65
46, 09:25:03,39.983191,266.93679,885.00142,97.65
47, 09:25:03,39.98473,267.038471,884.983665,97.65
48, 09:25:03,39.975852,267.129261,885.519886,97.65
49, 09:25:03,39.944721,267.231889,884.908381,97.65
50, 09:25:03,39.742385,266.830374,882.888494,97.65
51, 09:25:03,39.573311,266.203835,880.288352,97.65
52, 09:25:03,39.603693,266.05303,880.147727,97.65
53, 09:25:03,39.65992,265.964134,880.421165,97.65
54, 09:25:03,39.693063,265.854285,880.324574,97.65
55, 09:25:03,39.70206,265.705137,879.901278,97.65
56, 09:25:03,39.707426,265.5683,879.867188,97.65
57, 09:25:03,39.74858,265.481534,879.977273,97.65
58, 09:25:03,39.797506,265.481061,880.21875,97.65
59, 09:25:03,39.815696,265.418679,880.046165,97.65
60, 09:25:04,39.816801,265.29794,880.060369,97.6
61, 09:25:04,39.834912,265.232008,879.860795,97.6
62, 09:25:04,39.840593,265.187027,879.414773,97.6
63, 09:25:04,39.87425,265.222183,879.736506,97.6
64, 09:25:04,39.910472,265.287287,880.476562,97.6
65, 09:25:04,39.900174,265.306581,880.262784,97.6
66, 09:25:04,39.927991,265.367306,881.019176,97.6
67, 09:25:04,39.947996,265.443892,880.916193,97.6
68, 09:25:04,39.959557,265.51598,881.53054,97.6
69, 09:25:04,39.949653,265.59233,881.215909,97.6
70, 09:25:04,39.968237,265.694484,882.308949,97.6
71, 09:25:04,39.968316,265.769531,881.932528,97.6
72, 09:25:04,39.966659,265.889086,882.354403,97.6
73, 09:25:04,39.970881,265.972775,882.25142,97.6
74, 09:25:04,39.977667,266.077888,882.72017,97.6
75, 09:25:04,39.981061,266.167614,882.835227,97.6
76, 09:25:04,39.981416,266.264796,883.287642,97.6
77, 09:25:04,39.976168,266.416667,882.747159,97.6
78, 09:25:04,39.987887,266.522372,883.682528,97.6
79, 09:25:04,39.89461,266.463187,882.517756,97.6
80, 09:25:04,39.691998,265.979877,880.93892,97.6
81, 09:25:04,39.610795,265.597064,878.389205,97.6
82, 09:25:04,39.64461,265.548887,879.006392,97.6
83, 09:25:04,39.726523,265.582031,879.435369,97.6
84, 09:25:04,39.74783,265.468868,880.159801,97.6
85, 09:25:04,39.762587,265.457268,879.877131,97.6
86, 09:25:04,39.766888,265.40767,879.491477,97.6
87, 09:25:04,39.796599,265.36849,879.631392,97.6
88, 09:25:04,39.809817,265.364583,880.303977,97.6
89, 09:25:04,39.807884,265.273556,879.28054,97.6
90, 09:25:05,39.802438,265.261482,879.955256,97.625
91, 09:25:05,39.834517,265.290483,879.18608,97.625
92, 09:25:05,39.835148,265.300426,880.208807,97.625
93, 09:25:05,39.872159,265.385417,879.375,97.625
94, 09:25:05,39.877328,265.429806,880.425426,97.625
95, 09:25:05,39.887666,265.507221,880.208097,97.625
96, 09:25:05,39.899306,265.578125,880.923295,97.625
97, 09:25:05,39.902068,265.664062,880.785511,97.625
98, 09:25:05,39.903764,265.736387,881.412642,97.625
99, 09:25:05,39.905145,265.839489,881.377841,97.625
100, 09:25:05,39.910511,265.920928,881.809659,97.625
101, 09:25:05,39.915049,265.972893,881.794744,97.625
102, 09:25:05,39.925742,266.15696,882.43608,97.625
103, 09:25:05,39.923295,266.227746,882.068182,97.625
104, 09:25:05,39.932173,266.411103,883.193892,97.625
105, 09:25:05,39.957071,266.544508,882.704545,97.625
106, 09:25:05,39.953086,266.595526,884.036222,97.625
107, 09:25:05,39.936948,266.684422,883.455966,97.625
108, 09:25:05,39.910472,266.765507,883.754972,97.625
109, 09:25:05,39.740649,266.453954,881.189631,97.625
110, 09:25:05,39.615412,266.054096,880.154119,97.625
111, 09:25:05,39.625,265.949337,879.707386,97.625
112, 09:25:05,39.677241,265.995739,880.221591,97.625
113, 09:25:05,39.70715,266.036695,880.947443,97.625
114, 09:25:05,39.727904,266.011364,881.125,97.625
115, 09:25:05,39.743134,266.0116,881.316761,97.625
116, 09:25:05,39.757339,266.078835,881.620739,97.625
117, 09:25:05,39.761245,266.066406,880.929688,97.625
118, 09:25:05,39.740451,266.041903,880.955966,97.625
119, 09:25:05,39.72601,265.957386,880.690341,97.625
120, 09:25:06,39.743134,265.991714,881.143466,97.625
121, 09:25:06,39.74349,266.032552,880.709517,97.625
122, 09:25:06,39.77107,266.161222,881.444602,97.625
123, 09:25:06,39.791943,266.197798,881.885653,97.625
124, 09:25:06,39.786182,266.341974,882.28196,97.625
125, 09:25:06,39.791864,266.440459,881.838778,97.625
126, 09:25:06,39.800742,266.523438,882.473011,97.625
127, 09:25:06,39.796993,266.622041,882.658381,97.625
128, 09:25:06,39.822009,266.710819,882.776278,97.625
129, 09:25:06,39.820155,266.776752,882.680398,97.625
130, 09:25:06,39.820904,266.887902,883.59446,97.625
131, 09:25:06,39.817156,267.01018,883.129261,97.625
132, 09:25:06,39.827849,267.15116,883.841619,97.625
133, 09:25:06,39.835661,267.271662,884.385653,97.625
134, 09:25:06,39.834399,267.416075,884.993608,97.625
135, 09:25:06,39.826507,267.524503,884.752131,97.625
136, 09:25:06,39.788194,267.527936,885.230114,97.625
137, 09:25:06,39.592803,267.078598,881.747159,97.625
138, 09:25:06,39.486229,266.787287,881.189631,97.625
139, 09:25:06,39.501026,266.686316,880.913352,97.625
140, 09:25:06,39.547467,266.6817,881.479403,97.625
141, 09:25:06,39.57268,266.678741,881.475852,97.625
142, 09:25:06,39.583728,266.669744,881.708807,97.625
143, 09:25:06,39.612887,266.659683,881.75071,97.625
144, 09:25:06,39.638336,266.671638,881.649148,97.625
145, 09:25:06,39.637626,266.664299,881.752841,97.625
146, 09:25:06,39.642322,266.632931,881.675426,97.625
147, 09:25:06,39.635732,266.653409,881.451705,97.625
148, 09:25:06,39.62354,266.65187,881.820312,97.625
149, 09:25:06,39.655619,266.700284,882.488636,97.625
150, 09:25:07,39.688052,266.771544,882.691761,97.65
151, 09:25:07,39.688486,266.811671,882.054688,97.65
152, 09:25:07,39.712713,266.919389,882.678267,97.65
153, 09:25:07,39.694089,266.96295,882.837358,97.65
154, 09:25:07,39.698943,267.105824,883.205966,97.65
155, 09:25:07,39.687105,267.157907,882.384943,97.65
156, 09:25:07,39.701783,267.295218,883.538352,97.65
157, 09:25:07,39.716619,267.361506,883.683239,97.65
158, 09:25:07,39.712595,267.482008,884.167614,97.65
159, 09:25:07,39.720368,267.619437,884.296165,97.65
160, 09:25:07,39.743213,267.723958,884.889205,97.65
161, 09:25:07,39.74858,267.894413,885.147727,97.65
162, 09:25:07,39.766059,268.021188,885.314631,97.65
163, 09:25:07,39.759746,268.173651,885.68679,97.65
164, 09:25:07,39.745541,268.271188,886.402699,97.65
165, 09:25:07,39.707623,268.324574,885.759943,97.65
166, 09:25:07,39.527857,267.977509,883.825284,97.65
167, 09:25:07,39.370226,267.460582,881.820312,97.65
168, 09:25:07,39.357521,267.312618,881.75071,97.65
169, 09:25:07,39.421125,267.257694,881.514915,97.65
170, 09:25:07,39.44768,267.203362,882.546875,97.65
171, 09:25:07,39.468632,267.104285,881.634233,97.65
172, 09:25:07,39.463344,266.914181,881.195312,97.65
173, 09:25:07,39.502446,266.870028,881.075284,97.65
174, 09:25:07,39.520557,266.830611,881.662642,97.65
175, 09:25:07,39.533539,266.805161,881.37358,97.65
176, 09:25:07,39.543284,266.801728,881.696733,97.65
177, 09:25:07,39.546836,266.751302,881.732244,97.65
178, 09:25:07,39.58065,266.774148,881.497159,97.65
179, 09:25:07,39.598682,266.841974,881.818892,97.65
180, 09:25:08,39.624684,266.84375,881.923295,97.65
181, 09:25:08,39.624566,266.881274,882.205256,97.65
182, 09:25:08,39.636324,266.99562,883.058949,97.65
183, 09:25:08,39.635259,267.033617,882.536932,97.65
184, 09:25:08,39.643229,267.081676,883.137784,97.65
185, 09:25:08,39.656684,267.170336,883.490767,97.65
186, 09:25:08,39.633838,267.294034,883.409091,97.65
187, 09:25:08,39.654948,267.386245,883.360085,97.65
188, 09:25:08,39.666903,267.415956,884.208807,97.65
189, 09:25:08,39.695273,267.559777,884.611506,97.65
190, 09:25:08,39.702652,267.697443,885.073864,97.65
191, 09:25:08,39.702849,267.764323,884.756392,97.65
192, 09:25:08,39.716501,267.89098,885.365767,97.65
193, 09:25:08,39.715436,267.981061,884.971591,97.65
194, 09:25:08,39.711884,268.104403,885.90767,97.65
195, 09:25:08,39.700797,268.203717,885.855824,97.65
196, 09:25:08,39.712871,268.421757,886.408381,97.65
197, 09:25:08,39.726326,268.522727,886.221591,97.65
198, 09:25:08,39.712476,268.638376,886.833097,97.65
199, 09:25:08,39.492424,268.253314,884.690341,97.65
200, 09:25:08,39.333649,267.815341,882.815341,97.65
201, 09:25:08,39.344973,267.544389,881.644176,97.65
202, 09:25:08,39.419429,267.503078,882.896307,97.65
203, 09:25:08,39.451823,267.419389,882.465199,97.65
204, 09:25:08,39.439828,267.323745,882.303267,97.65
205, 09:25:08,39.434146,267.226207,881.564631,97.65
206, 09:25:08,39.458057,267.106652,881.523438,97.65
207, 09:25:08,39.495778,267.063565,881.759233,97.65
208, 09:25:08,39.528725,267.080492,882.176136,97.65
209, 09:25:08,39.521978,266.966501,882.102983,97.65
210, 09:25:09,39.532473,266.933594,881.703835,97.65
211, 09:25:09,39.558909,266.932884,882.012074,97.65
212, 09:25:09,39.572601,266.898674,882.553977,97.65
213, 09:25:09,39.596828,266.950521,882.441761,97.65
214, 09:25:09,39.588818,266.966738,882.442472,97.65
215, 09:25:09,39.619713,267.029119,882.197443,97.65
216, 09:25:09,39.628788,267.078598,883.443182,97.65
217, 09:25:09,39.614741,267.209754,882.184659,97.65
218, 09:25:09,39.632536,267.248461,883.121449,97.65
219, 09:25:09,39.645833,267.297822,883.284091,97.65
220, 09:25:09,39.648556,267.393584,883.986506,97.65
221, 09:25:09,39.66935,267.479167,883.926136,97.65
222, 09:25:09,39.683475,267.602036,884.194602,97.65
223, 09:25:09,39.674755,267.689039,884.520597,97.65
224, 09:25:09,39.70861,267.904238,885.365767,97.65
225, 09:25:09,39.710938,268.020123,885.379261,97.65
226, 09:25:09,39.737295,268.171638,886.504261,97.65
227, 09:25:09,39.726326,268.27983,886.289773,97.65
228, 09:25:09,39.715988,268.318892,886.362216,97.65
229, 09:25:09,39.706795,268.45419,885.674006,97.65
230, 09:25:09,39.705335,268.531723,886.650568,97.65
231, 09:25:09,39.703559,268.734257,886.789062,97.65
232, 09:25:09,39.705966,268.856534,887.315341,97.65
233, 09:25:09,39.698351,268.926018,887.095881,97.65
234, 09:25:09,39.486506,268.515388,885.890625,97.65
235, 09:25:09,39.293008,267.965672,883.166193,97.65
236, 09:25:09,39.340436,267.901042,883.443182,97.65
237, 09:25:09,39.407,267.905185,883.615767,97.65
238, 09:25:09,39.444208,267.877604,883.691761,97.65
239, 09:25:09,39.431187,267.723011,882.815341,97.65
240, 09:25:10,39.450087,267.557173,882.956676,97.925
241, 09:25:10,39.480903,267.508049,882.289773,97.925
242, 09:25:10,39.512153,267.510417,883.053977,97.925
243, 09:25:10,39.528646,267.490294,883.194602,97.925
244, 09:25:10,39.532039,267.455966,883.661932,97.925
245, 09:25:10,39.560172,267.34955,883.398438,97.925
246, 09:25:10,39.575718,267.416075,883.703835,97.925
247, 09:25:10,39.593947,267.385062,883.691051,97.925
248, 09:25:10,39.584359,267.431108,883.444602,97.925
249, 09:25:10,39.614741,267.496686,884.321023,97.925
250, 09:25:10,39.621765,267.566525,884.115057,97.925
251, 09:25:10,39.656053,267.679806,884.604403,97.925
252, 09:25:10,39.66572,267.723485,885.036932,97.925
253, 09:25:10,39.680043,267.840317,884.689631,97.925
254, 09:25:10,39.685251,267.904711,885.581676,97.925
255, 09:25:10,39.675426,267.961884,885.09233,97.925
256, 09:25:10,39.692393,268.064394,885.860795,97.925
257, 09:25:10,39.685922,268.126894,885.747159,97.925
258, 09:25:10,39.711135,268.266454,886.283381,97.925
259, 09:25:10,39.727983,268.351089,886.265625,97.925
260, 09:25:10,39.72021,268.501065,886.37571,97.925
261, 09:25:10,39.709596,268.613636,886.664773,97.925
262, 09:25:10,39.72309,268.75071,886.759943,97.925
263, 09:25:10,39.73114,268.852036,887.419034,97.925
264, 09:25:10,39.725418,268.968395,887.858665,97.925
265, 09:25:10,39.720092,269.096354,887.617898,97.925
266, 09:25:10,39.734848,269.27178,888.409091,97.925
267, 09:25:10,39.73911,269.339962,888.053977,97.925
268, 09:25:10,39.640743,269.252249,887.510653,97.925
269, 09:25:10,39.420494,268.770005,885.830256,97.925
270, 09:25:11,39.355193,268.495028,884.160511,97.95
271, 09:25:11,39.395912,268.435369,883.947443,97.95
272, 09:25:11,39.465909,268.502367,885.545455,97.95
273, 09:25:11,39.477707,268.471473,885.246449,97.95
274, 09:25:11,39.499132,268.399858,884.975852,97.95
275, 09:25:11,39.491477,268.310606,884.886364,97.95
276, 09:25:11,39.526397,268.325876,885.227983,97.95
277, 09:25:11,39.53705,268.33937,884.615767,97.95
278, 09:25:11,39.524345,268.327296,884.290483,97.95
279, 09:25:11,39.520794,268.282552,884.09304,97.95
280, 09:25:11,39.548414,268.250355,885.161222,97.95
281, 09:25:11,39.587397,268.343158,885.351562,97.95
282, 09:25:11,39.619515,268.359493,886.577415,97.95
283, 09:25:11,39.633759,268.422585,886.166193,97.95
284, 09:25:11,39.631076,268.486506,886.09517,97.95
285, 09:25:11,39.620857,268.59884,885.712358,97.95
286, 09:25:11,39.629261,268.679924,886.644886,97.95
287, 09:25:11,39.651831,268.710227,886.375,97.95
288, 09:25:11,39.662721,268.827652,887.244318,97.95
289, 09:25:11,39.677044,268.886245,887.263494,97.95
290, 09:25:11,39.665759,268.98544,887.495028,97.95
291, 09:25:11,39.680832,269.076113,887.220881,97.95
292, 09:25:11,39.684028,269.208333,887.553977,97.95
293, 09:25:11,39.710701,269.330019,887.980114,97.95
294, 09:25:11,39.711135,269.496094,888.257812,97.95
295, 09:25:11,39.70928,269.608902,888.553977,97.95
296, 09:25:11,39.700363,269.720407,889.117898,97.95
297, 09:25:11,39.718158,269.862334,889.159801,97.95
298, 09:25:11,39.706321,269.930043,890.00071,97.95
299, 09:25:11,39.703993,270.005919,889.075284,97.95
300, 09:25:12,39.684304,270.142874,890.314631,97.925
301, 09:25:12,39.56688,269.884351,889.12429,97.925
302, 09:25:12,39.37646,269.411577,886.725142,97.925
303, 09:25:12,39.369792,269.270833,886.053977,97.925
304, 09:25:12,39.410472,269.243253,886.834517,97.925
305, 09:25:12,39.463305,269.285275,886.552557,97.925
306, 09:25:12,39.485204,269.275213,887.029119,97.925
307, 09:25:12,39.4884,269.281013,886.973011,97.925
308, 09:25:12,39.505485,269.288234,887.703835,97.925
309, 09:25:12,39.524582,269.278291,886.970881,97.925
310, 09:25:12,39.498974,269.245502,886.867898,97.925
311, 09:25:12,39.493056,269.233428,886.863636,97.925
312, 09:25:12,39.507536,269.239938,886.860085,97.925
313, 09:25:12,39.539891,269.25509,887.03054,97.925
314, 09:25:12,39.571023,269.303977,887.946023,97.925
315, 09:25:12,39.603338,269.466264,888.056108,97.925
316, 09:25:12,39.623382,269.489938,888.308949,97.925
317, 09:25:12,39.622317,269.50947,887.568182,97.925
318, 09:25:12,39.621094,269.623224,888.381392,97.925
319, 09:25:12,39.623224,269.636245,888.075994,97.925
320, 09:25:12,39.640191,269.734493,888.87571,97.925
321, 09:25:12,39.645084,269.805043,888.441051,97.925
322, 09:25:12,39.640546,269.919271,889.276989,97.925
323, 09:25:12,39.642322,269.961529,888.933949,97.925
324, 09:25:12,39.65191,270.074574,889.43892,97.925
325, 09:25:12,39.666351,270.225379,889.96875,97.925
326, 09:25:12,39.659249,270.320549,889.917614,97.925
327, 09:25:12,39.663313,270.477154,890.078835,97.925
328, 09:25:12,39.659564,270.586648,890.196023,97.925
329, 09:25:12,39.665246,270.642992,890.582386,97.925
330, 09:25:13,39.675702,270.799834,891.324574,97.925
331, 09:25:13,39.667337,270.898793,891.128551,97.925
332, 09:25:13,39.583294,270.811908,891.144176,97.925
333, 09:25:13,39.349984,270.190578,887.697443,97.925
334, 09:25:13,39.286143,269.902936,887.349432,97.925
335, 09:25:13,39.325047,269.869555,886.955966,97.925
336, 09:25:13,39.39173,269.902936,887.792614,97.925
337, 09:25:13,39.423493,269.893584,888.114347,97.925
338, 09:25:13,39.433712,269.811553,888.480114,97.925
339, 09:25:13,39.444168,269.688565,887.509233,97.925
340, 09:25:13,39.451981,269.755563,887.507812,97.925
341, 09:25:13,39.47822,269.620265,887.551136,97.925
342, 09:25:13,39.494792,269.551136,887.965909,97.925
343, 09:25:13,39.496409,269.533262,887.239347,97.925
344, 09:25:13,39.506155,269.512784,887.911932,97.925
345, 09:25:13,39.538037,269.499527,887.46875,97.925
346, 09:25:13,39.563802,269.62133,888.364347,97.925
347, 09:25:13,39.599826,269.688684,888.93892,97.925
348, 09:25:13,39.600616,269.727983,888.984375,97.925
349, 09:25:13,39.616359,269.815933,889.023438,97.925
350, 09:25:13,39.60902,269.860204,888.834517,97.925
351, 09:25:13,39.613045,269.857126,888.608665,97.925
352, 09:25:13,39.62863,269.931345,889.232955,97.925
353, 09:25:13,39.630642,269.926018,889.391335,97.925
354, 09:25:13,39.622988,270.011009,889.154119,97.925
355, 09:25:13,39.659249,270.173769,889.78125,97.925
356, 09:25:13,39.653093,270.24858,890.008523,97.925
357, 09:25:13,39.666075,270.375592,890.049006,97.925
358, 09:25:13,39.664615,270.485795,891.048295,97.925
359, 09:25:13,39.664378,270.523438,891.100852,97.925
360, 09:25:14,39.666588,270.62429,891.427557,97.925
361, 09:25:14,39.66714,270.725852,891.295455,97.925
362, 09:25:14,39.680082,270.903883,891.826705,97.925
363, 09:25:14,39.694168,271.034683,891.78196,97.925
364, 09:25:14,39.682528,271.095407,891.660511,97.925
365, 09:25:14,39.59959,271.013731,891.258523,97.925
366, 09:25:14,39.364781,270.540365,888.483665,97.925
367, 09:25:14,39.270005,270.032079,886.320312,97.925
368, 09:25:14,39.281881,269.981061,887.536932,97.925
369, 09:25:14,39.370305,269.932884,887.622869,97.925
370, 09:25:14,39.40992,269.931937,887.804688,97.925
371, 09:25:14,39.409762,269.850497,888.017756,97.925
372, 09:25:14,39.391098,269.57197,887.107955,97.925
373, 09:25:14,39.43675,269.518584,887.671165,97.925
374, 09:25:14,39.488952,269.544034,887.085227,97.925
375, 09:25:14,39.520123,269.503551,887.359375,97.925
376, 09:25:14,39.513415,269.486742,887.724432,97.925
377, 09:25:14,39.545967,269.4433,887.881392,97.925
378, 09:25:14,39.554017,269.351444,888.006392,97.925
379, 09:25:14,39.57994,269.393229,887.816761,97.925
380, 09:25:14,39.61849,269.468158,888.050426,97.925
381, 09:25:14,39.639717,269.521425,888.276278,97.925
382, 09:25:14,39.670691,269.579782,888.509943,97.925
383, 09:25:14,39.678622,269.666548,888.664062,97.925
384, 09:25:14,39.682252,269.710109,888.74929,97.925
385, 09:25:14,39.683594,269.758168,888.739347,97.925
386, 09:25:14,39.704348,269.856416,889.825994,97.925
387, 09:25:14,39.717803,269.919034,889.480114,97.925
388, 09:25:14,39.723169,270.040246,889.974432,97.925
389, 09:25:14,39.713936,270.098722,889.691761,97.925
390, 09:25:15,39.717448,270.255563,890.604403,97.9
391, 09:25:15,39.742661,270.310369,890.731534,97.9
392, 09:25:15,39.733546,270.427912,891.15554,97.9
393, 09:25:15,39.754104,270.566288,891.127841,97.9
394, 09:25:15,39.739781,270.687618,891.639915,97.9
395, 09:25:15,39.734533,270.784091,891.215909,97.9
396, 09:25:15,39.729561,270.875237,891.990057,97.9
397, 09:25:15,39.749684,271.017519,892.332386,97.9
398, 09:25:15,39.762508,271.164891,892.480824,97.9
399, 09:25:15,39.720683,271.208452,892.193892,97.9
400, 09:25:15,39.531408,270.77178,890.269886,97.9
401, 09:25:15,39.317748,270.228338,887.09446,97.9
402, 09:25:15,39.310803,270.017637,887.162642,97.9
403, 09:25:15,39.380327,269.976207,887.257812,97.9
404, 09:25:15,39.434817,270.045455,888.079545,97.9
405, 09:25:15,39.451389,269.969697,887.713068,97.9
406, 09:25:15,39.451468,269.886127,887.473011,97.9
407, 09:25:15,39.465317,269.804096,887.529119,97.9
408, 09:25:15,39.512232,269.792377,888.231534,97.9
409, 09:25:15,39.514323,269.738045,887.536222,97.9
410, 09:25:15,39.535906,269.711884,888.183239,97.9
411, 09:25:15,39.537524,269.712476,888.175426,97.9
412, 09:25:15,39.565183,269.643466,888.196023,97.9
413, 09:25:15,39.587831,269.716146,888.089489,97.9
414, 09:25:15,39.626776,269.760062,889.023438,97.9
415, 09:25:15,39.647057,269.734257,889.138494,97.9
416, 09:25:15,39.676649,269.863755,889.384233,97.9
417, 09:25:15,39.693655,269.962121,889.497159,97.9
418, 09:25:15,39.69113,270.012784,889.829545,97.9
419, 09:25:15,39.694168,270.111861,889.662642,97.9
420, 09:25:16,39.692077,270.181345,889.630682,97.9
421, 09:25:16,39.69113,270.243845,889.772727,97.9
422, 09:25:16,39.704585,270.352391,890.432528,97.9
423, 09:25:16,39.701823,270.425071,890.308949,97.9
424, 09:25:16,39.721788,270.520478,890.503551,97.9
425, 09:25:16,39.722183,270.591264,890.987926,97.9
426, 09:25:16,39.722341,270.700639,891.675426,97.9
427, 09:25:16,39.736545,270.878196,891.257812,97.9
428, 09:25:16,39.735835,270.957505,891.503551,97.9
429, 09:25:16,39.74708,271.14465,892.367898,97.9
430, 09:25:16,39.75071,271.206676,892.259943,97.9
431, 09:25:16,39.741043,271.27474,892.546165,97.9
432, 09:25:16,39.731613,271.37571,892.71733,97.9
433, 09:25:16,39.566525,271.069839,890.901989,97.9
434, 09:25:16,39.259785,270.523201,887.954545,97.9
435, 09:25:16,39.278251,270.309659,887.178977,97.9
436, 09:25:16,39.343513,270.24929,887.805398,97.9
437, 09:25:16,39.415286,270.19188,888.137074,97.9
438, 09:25:16,39.45715,270.190578,888.711648,97.9
439, 09:25:16,39.469302,270.016809,888.035511,97.9
440, 09:25:16,39.486387,269.928859,888.078835,97.9
441, 09:25:16,39.509549,269.836411,888.541193,97.9
442, 09:25:16,39.532907,269.814157,888.453125,97.9
443, 09:25:16,39.550623,269.782552,887.618608,97.9
444, 09:25:16,39.537958,269.712358,888.149148,97.9
445, 09:25:16,39.570115,269.648793,887.935369,97.9
446, 09:25:16,39.603299,269.692472,888.541193,97.9
447, 09:25:16,39.627012,269.747514,888.377131,97.9
448, 09:25:16,39.653251,269.881629,888.431818,97.9
449, 09:25:16,39.672309,269.864938,888.777699,97.9
450, 09:25:17,39.691959,269.887902,889.387074,97.9
451, 09:25:17,39.707307,269.974195,889.40483,97.9
452, 09:25:17,39.712121,270.022254,889.292614,97.9
453, 09:25:17,39.712792,270.114702,890.023438,97.9
454, 09:25:17,39.724274,270.161458,890.355114,97.9
455, 09:25:17,39.725971,270.229048,890.362926,97.9
456, 09:25:17,39.732915,270.363518,890.493608,97.9
457, 09:25:17,39.753867,270.464252,890.18892,97.9
458, 09:25:17,39.765862,270.539536,890.75142,97.9
459, 09:25:17,39.76306,270.652817,890.308949,97.9
460, 09:25:17,39.758444,270.778172,890.796875,97.9
461, 09:25:17,39.759115,270.87867,890.723722,97.9
462, 09:25:17,39.780658,270.976918,891.730824,97.9
463, 09:25:17,39.777423,271.1192,892.459517,97.9
464, 09:25:17,39.767045,271.258049,892.238636,97.9
465, 09:25:17,39.603693,271.068655,890.738636,97.9
466, 09:25:17,39.424558,270.580019,888.892045,97.9
467, 09:25:17,39.381076,270.175426,887.629261,97.9
468, 09:25:17,39.424953,270.108191,888.390625,97.9
469, 09:25:17,39.490017,270.066643,888.129972,97.9
470, 09:25:17,39.556305,270.095052,889.40554,97.9
471, 09:25:17,39.573351,270.00651,888.760653,97.9
472, 09:25:17,39.615136,269.941051,888.541193,97.9
473, 09:25:17,39.625868,269.927794,888.899148,97.9
474, 09:25:17,39.63151,269.889323,888.409801,97.9
475, 09:25:17,39.626184,269.825521,889.120739,97.9
476, 09:25:17,39.619792,269.695549,888.130682,97.9
477, 09:25:17,39.648753,269.635653,887.950284,97.9
478, 09:25:17,39.68892,269.627841,888.298295,97.9
479, 09:25:17,39.72459,269.715909,888.630682,97.9
480, 09:25:18,39.755563,269.784209,888.674006,98.15
481, 09:25:18,39.787208,269.836056,888.556108,98.15
482, 09:25:18,39.789615,269.954545,889.360795,98.15
483, 09:25:18,39.809699,269.986387,889.983665,98.15
484, 09:25:18,39.821023,270.007102,889.8125,98.15
485, 09:25:18,39.810133,270.058712,889.602273,98.15
486, 09:25:18,39.799795,270.119081,890.120739,98.15
487, 09:25:18,39.809186,270.214015,890.707386,98.15
488, 09:25:18,39.82852,270.31321,891.03267,98.15
489, 09:25:18,39.83136,270.369081,890.47017,98.15
490, 09:25:18,39.845683,270.447088,891.742188,98.15
491, 09:25:18,39.834241,270.542969,891.772017,98.15
492, 09:25:18,39.848643,270.585227,891.636364,98.15
493, 09:25:18,39.863676,270.708452,891.867188,98.15
494, 09:25:18,39.855903,270.85322,892.28125,98.15
495, 09:25:18,39.781802,270.819839,891.785511,98.15
496, 09:25:18,39.491162,270.263731,889.204545,98.15
497, 09:25:18,39.471078,269.81617,887.297585,98.15
498, 09:25:18,39.501026,269.522964,887.242898,98.15
499, 09:25:18,39.620857,269.504143,887.706676,98.15
500, 09:25:18,39.674085,269.519413,888.0625,98.15
501, 09:25:18,39.716698,269.489583,888.573864,98.15
502, 09:25:18,39.71366,269.470999,888.621449,98.15
503, 09:25:18,39.751065,269.453954,888.203835,98.15
504, 09:25:18,39.759075,269.366714,888.921875,98.15
505, 09:25:18,39.758562,269.221236,888.68821,98.15
506, 09:25:18,39.755958,269.099787,887.337358,98.15
507, 09:25:18,39.800939,269.01456,887.34304,98.15
508, 09:25:18,39.841264,269.036577,887.878551,98.15
509, 09:25:18,39.87133,269.038234,888.041903,98.15
510, 09:25:19,39.89682,269.146425,889.128551,98.125
511, 09:25:19,39.925979,269.186553,889.130682,98.125
512, 09:25:19,39.935764,269.22822,888.775568,98.125
513, 09:25:19,39.953164,269.303622,889.162642,98.125
514, 09:25:19,39.935843,269.345407,889.598011,98.125
515, 09:25:19,39.956913,269.329072,888.866477,98.125
516, 09:25:19,39.938605,269.381155,889.380682,98.125
517, 09:25:19,39.951783,269.47893,889.535511,98.125
518, 09:25:19,39.951192,269.586529,890.260653,98.125
519, 09:25:19,39.952652,269.592803,888.894886,98.125
520, 09:25:19,39.963581,269.686198,889.591619,98.125
521, 09:25:19,39.970644,269.846117,890.622159,98.125
522, 09:25:19,39.986545,269.951586,890.558949,98.125
523, 09:25:19,40.003354,270.138376,891.071733,98.125
524, 09:25:19,39.978851,270.175189,891.377841,98.125
525, 09:25:19,39.75363,269.599432,888.428977,98.125
526, 09:25:19,39.591264,268.875118,886.264915,98.125
527, 09:25:19,39.616201,268.378433,883.841619,98.125
528, 09:25:19,39.728772,268.254498,884.930398,98.125
529, 09:25:19,39.787839,268.143348,885.536222,98.125
530, 09:25:19,39.843119,267.961648,885.96875,98.125
531, 09:25:19,39.866753,267.78492,885.496449,98.125
532, 09:25:19,39.896188,267.537524,884.983665,98.125
533, 09:25:19,39.940341,267.406723,884.721591,98.125
534, 09:25:19,39.974235,267.345999,885.164062,98.125
535, 09:25:19,39.991714,267.201941,884.447443,98.125
536, 09:25:19,40.000986,267.029948,884.699574,98.125
537, 09:25:19,40.026515,266.846117,884.806818,98.125
538, 09:25:19,40.090988,266.862926,884.995739,98.125
539, 09:25:19,40.111861,266.765033,884.331676,98.125
540, 09:25:20,40.136995,266.806818,884.829545,97.85
541, 09:25:20,40.17657,266.844579,885.178267,97.85
542, 09:25:20,40.178819,266.870265,885.230114,97.85
543, 09:25:20,40.194484,266.920099,884.793324,97.85
544, 09:25:20,40.202178,266.884943,884.690341,97.85
545, 09:25:20,40.226444,266.954901,885.675426,97.85
546, 09:25:20,40.228496,267.005563,885.81179,97.85
547, 09:25:20,40.231376,267.044981,885.170455,97.85
548, 09:25:20,40.230705,267.043442,885.621449,97.85
549, 09:25:20,40.242069,267.10973,886.044744,97.85
550, 09:25:20,40.259746,267.204427,885.976562,97.85
551, 09:25:20,40.252683,267.261364,886.400568,97.85
552, 09:25:20,40.255642,267.372514,886.661222,97.85
553, 09:25:20,40.262468,267.469697,886.940341,97.85
554, 09:25:20,40.266454,267.528527,887.088778,97.85
555, 09:25:20,40.212437,267.498106,886.838068,97.85
556, 09:25:20,39.983152,266.768584,882.75071,97.85
557, 09:25:20,39.936001,265.978456,880.18608,97.85
558, 09:25:20,39.976523,265.35902,879.710938,97.85
559, 09:25:20,40.054253,265.289181,880.294744,97.85
560, 09:25:20,40.131392,265.152699,881.052557,97.85
561, 09:25:20,40.180713,264.910511,880.190341,97.85
562, 09:25:20,40.201744,264.592448,880.088778,97.85
563, 09:25:20,40.258286,264.407907,879.424716,97.85
564, 09:25:20,40.301215,264.293324,880.012784,97.85
565, 09:25:20,40.315972,264.104167,879.323864,97.85
566, 09:25:20,40.330729,263.940578,879.453125,97.85
567, 09:25:20,40.360164,263.81108,877.642045,97.85
568, 09:25:20,40.38589,263.596117,878.139205,97.85
569, 09:25:20,40.413747,263.573153,878.427557,97.85
570, 09:25:21,40.452573,263.612453,879.129261,97.85
571, 09:25:21,40.470604,263.654238,879.169744,97.85
572, 09:25:21,40.487689,263.723011,879.673295,97.85
573, 09:25:21,40.505051,263.727273,879.764205,97.85
574, 09:25:21,40.516848,263.770715,879.479403,97.85
575, 09:25:21,40.511995,263.779356,879.511364,97.85
576, 09:25:21,40.520676,263.808712,879.627841,97.85
577, 09:25:21,40.530145,263.850379,879.909091,97.85
578, 09:25:21,40.537958,263.884706,880.046875,97.85
579, 09:25:21,40.538273,263.958097,879.694602,97.85
580, 09:25:21,40.552912,264.030895,880.864347,97.85
581, 09:25:21,40.558752,264.120857,881.205256,97.85
582, 09:25:21,40.567235,264.201705,881.383523,97.85
583, 09:25:21,40.564433,264.3808,880.59446,97.85
584, 09:25:21,40.557015,264.426255,881.588778,97.85
585, 09:25:21,40.564276,264.52474,881.972301,97.85
586, 09:25:21,40.561711,264.679451,882.511364,97.85
587, 09:25:21,40.493845,264.564394,880.806818,97.85
588, 09:25:21,40.271662,263.827296,877.665483,97.85
589, 09:25:21,40.15846,262.951231,875.102273,97.85
590, 09:25:21,40.266967,262.629025,875.913352,97.85
591, 09:25:21,40.371133,262.377131,875.37358,97.85
592, 09:25:21,40.434186,262.202178,875.65625,97.85
593, 09:25:21,40.471591,261.997159,874.596591,97.85
594, 09:25:21,40.482915,261.7442,874.865767,97.85
595, 09:25:21,40.514678,261.609848,873.721591,97.85
596, 09:25:21,40.543561,261.425189,874.241477,97.85
597, 09:25:21,40.579979,261.310961,873.897017,97.85
598, 09:25:21,40.590396,261.122514,874.112926,97.85
599, 09:25:21,40.59955,260.905658,873.362926,97.85
600, 09:25:22,40.644492,260.881866,873.163352,97.85
601, 09:25:22,40.68821,260.993134,873.825284,97.85
602, 09:25:22,40.69184,261.012074,873.742898,97.85
603, 09:25:22,40.706755,261.025568,873.619318,97.85
604, 09:25:22,40.723366,261.09008,874.142756,97.85
605, 09:25:22,40.72309,261.207623,874.379261,97.85
606, 09:25:22,40.738597,261.232836,874.973722,97.85
607, 09:25:22,40.745265,261.314867,874.241477,97.85
608, 09:25:22,40.74491,261.403764,874.879972,97.85
609, 09:25:22,40.749329,261.465317,875.056108,97.85
610, 09:25:22,40.763139,261.525687,875.799006,97.85
611, 09:25:22,40.773595,261.653646,875.961648,97.85
612, 09:25:22,40.779987,261.807292,876.522727,97.85
613, 09:25:22,40.787682,261.910866,876.075994,97.85
614, 09:25:22,40.799519,262.013613,877.425426,97.85
615, 09:25:22,40.79139,262.122751,876.827415,97.85
616, 09:25:22,40.789378,262.272964,878.052557,97.85
617, 09:25:22,40.78997,262.419626,877.068892,97.85
618, 09:25:22,40.794271,262.6134,878.399148,97.85
619, 09:25:22,40.76306,262.68312,878.229403,97.85
620, 09:25:22,40.522491,262.2616,875.044034,97.85
621, 09:25:22,40.44989,261.538116,872.464489,97.85
622, 09:25:22,40.472301,260.976089,872.447443,97.85
623, 09:25:22,40.553543,260.757694,871.833097,97.85
624, 09:25:22,40.618213,260.659091,872.948864,97.85
625, 09:25:22,40.658854,260.593987,872.964489,97.85
626, 09:25:22,40.681937,260.432647,872.970881,97.85
627, 09:25:22,40.713344,260.405658,872.519176,97.85
628, 09:25:22,40.746528,260.348485,872.90625,97.85
629, 09:25:22,40.75,260.300663,872.610795,97.85
630, 09:25:23,40.718908,260.085701,871.917614,97.825
631, 09:25:23,40.724787,259.984493,871.284801,97.825
632, 09:25:23,40.770715,259.937618,871.512074,97.825
633, 09:25:23,40.812973,260.003314,871.846591,97.825
634, 09:25:23,40.838818,260.017874,871.766335,97.825
635, 09:25:23,40.855587,260.130682,872.880682,97.825
636, 09:25:23,40.883247,260.268584,872.81321,97.825
637, 09:25:23,40.869634,260.309186,873.315341,97.825
638, 09:25:23,40.872238,260.331676,873.521307,97.825
639, 09:25:23,40.890743,260.428859,873.317472,97.825
640, 09:25:23,40.892282,260.474195,873.356534,97.825
641, 09:25:23,40.894216,260.56617,873.803267,97.825
642, 09:25:23,40.901594,260.645597,874.06108,97.825
643, 09:25:23,40.904987,260.803504,874.596591,97.825
644, 09:25:23,40.928977,260.92803,875.267045,97.825
645, 09:25:23,40.903843,261.102154,874.914062,97.825
646, 09:25:23,40.918679,261.227154,875.317472,97.825
647, 09:25:23,40.927596,261.34008,875.196733,97.825
648, 09:25:23,40.947917,261.535985,876.181818,97.825
649, 09:25:23,40.958057,261.698509,876.299006,97.825
650, 09:25:23,40.923177,261.725971,876.696733,97.825
651, 09:25:23,40.636995,261.214962,872.786932,97.825
652, 09:25:23,40.596433,260.599432,871.485795,97.825
653, 09:25:23,40.640191,260.178149,870.537642,97.825
654, 09:25:23,40.742109,260.090909,871.883523,97.825
655, 09:25:23,40.788234,260.105232,872.040483,97.825
656, 09:25:23,40.81759,260.0683,871.654119,97.825
657, 09:25:23,40.841185,260.052438,871.607244,97.825
658, 09:25:23,40.872554,260.111032,872.174716,97.825
659, 09:25:23,40.89607,260.077415,872.34233,97.825
660, 09:25:24,40.865057,259.931818,871.869318,97.825
661, 09:25:24,40.86628,259.833688,871.820312,97.825
662, 09:25:24,40.896031,259.783736,872.259233,97.825
663, 09:25:24,40.922072,259.810251,871.929688,97.825
664, 09:25:24,40.939473,259.846354,873.18892,97.825
665, 09:25:24,40.966343,259.939276,871.882812,97.825
666, 09:25:24,40.979403,259.995502,872.97017,97.825
667, 09:25:24,41.00438,260.191643,872.877131,97.825
668, 09:25:24,41.025253,260.333807,873.664773,97.825
669, 09:25:24,41.043363,260.387666,873.709517,97.825
670, 09:25:24,41.035393,260.439039,874.736506,97.825
671, 09:25:24,41.021386,260.508286,874.419034,97.825
672, 09:25:24,41.039181,260.670573,874.696733,97.825
673, 09:25:24,41.05524,260.858902,875.588068,97.825
674, 09:25:24,41.0494,260.941761,875.838068,97.825
675, 09:25:24,41.059067,261.041312,875.622869,97.825
676, 09:25:24,41.064591,261.201823,876.580256,97.825
677, 09:25:24,41.062973,261.363636,876.4375,97.825
678, 09:25:24,41.098406,261.534801,877.362216,97.825
679, 09:25:24,41.062421,261.645123,876.833807,97.825
680, 09:25:24,40.883917,261.195786,873.822443,97.825
681, 09:25:24,40.730863,260.437855,871.885653,97.825
682, 09:25:24,40.737729,259.86849,871.307528,97.825
683, 09:25:24,40.804214,259.747396,870.987216,97.825
684, 09:25:24,40.897846,259.645241,871.550426,97.825
685, 09:25:24,40.942274,259.576349,871.40696,97.825
686, 09:25:24,40.94768,259.406487,870.865057,97.825
687, 09:25:24,40.983349,259.367188,870.825284,97.825
688, 09:25:24,41.012468,259.347538,871.505682,97.825
689, 09:25:24,41.028725,259.329072,871.005682,97.825
690, 09:25:25,41.027265,259.127723,871.056108,97.8
691, 09:25:25,41.037563,259.034091,870.926136,97.8
692, 09:25:25,41.061356,258.949692,870.806108,97.8
693, 09:25:25,41.098682,259.039891,870.796165,97.8
694, 09:25:25,41.126657,259.044271,872.06108,97.8
695, 09:25:25,41.147372,259.107836,871.760653,97.8
696, 09:25:25,41.160472,259.235677,872.729403,97.8
697, 09:25:25,41.180122,259.317827,872.608665,97.8
698, 09:25:25,41.204111,259.463187,872.807528,97.8
699, 09:25:25,41.214804,259.554451,872.767045,97.8
700, 09:25:25,41.226681,259.656842,873.560369,97.8
701, 09:25:25,41.228259,259.798414,873.449574,97.8
702, 09:25:25,41.221157,259.830611,874.003551,97.8
703, 09:25:25,41.231771,259.959991,873.669034,97.8
704, 09:25:25,41.224708,260.079427,874.510653,97.8
705, 09:25:25,41.226365,260.213187,874.617188,97.8
706, 09:25:25,41.249369,260.368845,875.002841,97.8
707, 09:25:25,41.256747,260.560014,875.067472,97.8
708, 09:25:25,41.271622,260.740057,875.715909,97.8
709, 09:25:25,41.268624,260.857481,875.821023,97.8
710, 09:25:25,41.171165,260.757812,875.640625,97.8
711, 09:25:25,40.966343,260.076586,871.962358,97.8
712, 09:25:25,40.892795,259.260772,869.908381,97.8
713, 09:25:25,40.966146,258.727036,868.910511,97.8
714, 09:25:25,41.038313,258.586529,869.865767,97.8
715, 09:25:25,41.098801,258.480587,869.332386,97.8
716, 09:25:25,41.133602,258.368608,870.362216,97.8
717, 09:25:25,41.168679,258.164654,869.235085,97.8
718, 09:25:25,41.227352,257.994555,870.52983,97.8
719, 09:25:25,41.240215,257.888258,869.261364,97.8
720, 09:25:26,41.253512,257.782789,869.977983,97.775
721, 09:25:26,41.274897,257.635298,869.641335,97.775
722, 09:25:26,41.287839,257.541548,869.635653,97.775
723, 09:25:26,41.305003,257.533854,869.223011,97.775
724, 09:25:26,41.345447,257.602154,869.334517,97.775
725, 09:25:26,41.38151,257.595762,869.381392,97.775
726, 09:25:26,41.40333,257.671638,870.137784,97.775
727, 09:25:26,41.426531,257.802794,870.90483,97.775
728, 09:25:26,41.441643,257.906368,871.191051,97.775
729, 09:25:26,41.458294,258.012666,870.772017,97.775
730, 09:25:26,41.473801,258.146307,871.551136,97.775
731, 09:25:26,41.468277,258.25,871.434659,97.775
732, 09:25:26,41.466343,258.410393,872.164062,97.775
733, 09:25:26,41.464765,258.497988,871.223722,97.775
734, 09:25:26,41.474747,258.630208,872.585227,97.775
735, 09:25:26,41.471236,258.768348,872.323153,97.775
736, 09:25:26,41.478851,258.983902,873.440341,97.775
737, 09:25:26,41.485046,259.117069,873.602983,97.775
738, 09:25:26,41.505051,259.310606,874.630682,97.775
739, 09:25:26,41.521425,259.550071,874.666903,97.775
740, 09:25:26,41.524779,259.705019,875.167614,97.775
741, 09:25:26,41.503946,259.837595,875.369318,97.775
742, 09:25:26,41.301452,259.408144,873.178977,97.775
743, 09:25:26,41.160985,258.536458,870.181818,97.775
744, 09:25:26,41.206992,257.925426,869.106534,97.775
745, 09:25:26,41.258128,257.793797,868.819602,97.775
746, 09:25:26,41.35973,257.631274,869.267756,97.775
747, 09:25:26,41.409998,257.493726,869.416903,97.775
748, 09:25:26,41.429766,257.31108,869.224432,97.775
749, 09:25:26,41.453007,257.194721,868.929688,97.775
750, 09:25:27,41.504735,257.187973,869.866477,97.775
751, 09:25:27,41.521701,257.120028,869.578125,97.775
752, 09:25:27,41.535551,257.009588,869.830256,97.775
753, 09:25:27,41.545889,256.908026,868.976562,97.775
754, 09:25:27,41.571772,256.858783,869.769176,97.775
755, 09:25:27,41.602904,256.881629,869.451705,97.775
756, 09:25:27,41.62358,256.984375,869.928977,97.775
757, 09:25:27,41.648714,257.070194,869.568892,97.775
758, 09:25:27,41.672546,257.142637,870.827415,97.775
759, 09:25:27,41.682094,257.245147,870.854403,97.775
760, 09:25:27,41.706203,257.418797,872.242898,97.775
761, 09:25:27,41.699219,257.607126,870.870028,97.775
762, 09:25:27,41.713265,257.725497,871.960938,97.775
763, 09:25:27,41.696141,257.884825,871.641335,97.775
764, 09:25:27,41.703401,258.03634,872.325994,97.775
765, 09:25:27,41.717645,258.184659,872.9375,97.775
766, 09:25:27,41.73039,258.326586,873.664062,97.775
767, 09:25:27,41.750395,258.498816,873.521307,97.775
768, 09:25:27,41.752486,258.705848,874.414062,97.775
769, 09:25:27,41.748382,258.854522,874.527699,97.775
770, 09:25:27,41.741359,259.030421,875.085938,97.775
771, 09:25:27,41.745936,259.307884,874.580256,97.775
772, 09:25:27,41.764165,259.505563,876.050426,97.775
773, 09:25:27,41.658933,259.439867,875.340909,97.775
774, 09:25:27,41.44334,258.804924,871.795455,97.775
775, 09:25:27,41.364623,258.172467,869.736506,97.775
776, 09:25:27,41.446102,257.983665,870.705966,97.775
777, 09:25:27,41.536616,257.90767,870.28125,97.775
778, 09:25:27,41.599629,257.847183,871.540483,97.775
779, 09:25:27,41.617345,257.835938,870.921875,97.775
780, 09:25:28,41.637508,257.756274,871.824574,98.0
781, 09:25:28,41.657473,257.738045,871.408381,98.0
782, 09:25:28,41.688408,257.77545,871.78054,98.0
783, 09:25:28,41.70419,257.718632,871.414062,98.0
784, 09:25:28,41.695825,257.669389,871.641335,98.0
785, 09:25:28,41.714212,257.656368,870.81321,98.0
786, 09:25:28,41.74637,257.730114,872.258523,98.0
787, 09:25:28,41.763849,257.708688,871.098722,98.0
788, 09:25:28,41.768703,257.816525,872.31108,98.0
789, 09:25:28,41.783657,257.956558,872.236506,98.0
790, 09:25:28,41.786932,258.113636,872.644886,98.0
791, 09:25:28,41.82122,258.245857,872.534801,98.0
792, 09:25:28,41.822719,258.377723,873.453835,98.0
793, 09:25:28,41.841264,258.581558,873.807528,98.0
794, 09:25:28,41.832741,258.685724,874.759233,98.0
795, 09:25:28,41.832347,258.823272,874.965199,98.0
796, 09:25:28,41.842527,258.945194,874.84446,98.0
797, 09:25:28,41.848722,259.099669,875.447443,98.0
798, 09:25:28,41.844658,259.29581,876.090199,98.0
799, 09:25:28,41.847735,259.461293,875.745028,98.0
800, 09:25:28,41.856376,259.605587,876.622159,98.0
801, 09:25:28,41.86845,259.884233,877.00142,98.0
802, 09:25:28,41.850616,260.047585,877.603693,98.0
803, 09:25:28,41.743332,259.967685,877.215199,98.0
804, 09:25:28,41.554293,259.287405,874.136364,98.0
805, 09:25:28,41.531763,258.937618,872.858665,98.0
806, 09:25:28,41.607363,258.609967,872.426847,98.0
807, 09:25:28,41.664497,258.669152,873.205256,98.0
808, 09:25:28,41.709872,258.726207,874.345881,98.0
809, 09:25:28,41.738755,258.796283,873.743608,98.0
810, 09:25:29,41.767085,258.786577,873.816051,97.975
811, 09:25:29,41.794231,258.844342,874.074574,97.975
812, 09:25:29,41.773516,258.83286,874.985795,97.975
813, 09:25:29,41.758878,258.736387,874.128551,97.975
814, 09:25:29,41.769058,258.717685,873.851562,97.975
815, 09:25:29,41.795178,258.68383,873.952415,97.975
816, 09:25:29,41.822404,258.779711,874.726562,97.975
817, 09:25:29,41.849037,258.920218,874.390625,97.975
818, 09:25:29,41.873264,259.083333,875.190341,97.975
819, 09:25:29,41.879735,259.204072,875.46875,97.975
820, 09:25:29,41.903093,259.353693,876.099432,97.975
821, 09:25:29,41.918718,259.598485,876.633523,97.975
822, 09:25:29,41.902304,259.636364,876.829545,97.975
823, 09:25:29,41.902857,259.78196,876.132102,97.975
824, 09:25:29,41.915128,259.87938,877.475142,97.975
825, 09:25:29,41.905777,260.085701,877.1875,97.975
826, 09:25:29,41.90625,260.161932,878.176136,97.975
827, 09:25:29,41.89607,260.371449,877.890625,97.975
828, 09:25:29,41.9128,260.559422,879.115057,97.975
829, 09:25:29,41.931384,260.796993,879.585938,97.975
830, 09:25:29,41.895439,260.944839,879.578125,97.975
831, 09:25:29,41.787287,260.807884,878.404119,97.975
832, 09:25:29,41.597696,260.247633,875.96875,97.975
833, 09:25:29,41.556266,259.793797,874.464489,97.975
834, 09:25:29,41.61699,259.708452,875.003551,97.975
835, 09:25:29,41.691959,259.52474,874.705256,97.975
836, 09:25:29,41.732994,259.49491,874.867188,97.975
837, 09:25:29,41.771741,259.359257,875.090199,97.975
838, 09:25:29,41.794626,259.340791,875.516335,97.975
839, 09:25:29,41.818616,259.356889,875.726562,97.975
840, 09:25:30,41.81905,259.340672,875.578125,97.975
841, 09:25:30,41.822759,259.34233,875.113636,97.975
842, 09:25:30,41.836924,259.264086,875.12429,97.975
843, 09:25:30,41.83211,259.264323,874.943892,97.975
844, 09:25:30,41.873106,259.348958,875.965909,97.975
845, 09:25:30,41.892992,259.420928,875.917614,97.975
846, 09:25:30,41.914536,259.563684,876.34233,97.975
847, 09:25:30,41.921638,259.699574,876.12642,97.975
848, 09:25:30,41.928109,259.820786,877.450284,97.975
849, 09:25:30,41.951428,259.996804,877.492188,97.975
850, 09:25:30,41.96658,260.048887,878.321733,97.975
851, 09:25:30,41.955729,260.247396,878.160511,97.975
852, 09:25:30,41.964725,260.378078,879.166193,97.975
853, 09:25:30,41.954979,260.497514,878.914062,97.975
854, 09:25:30,41.951428,260.659683,879.290483,97.975
855, 09:25:30,41.97459,260.823864,879.025568,97.975
856, 09:25:30,42.000197,261.001065,880.213778,97.975
857, 09:25:30,41.986151,261.122277,880.659801,97.975
858, 09:25:30,41.972972,261.325639,880.095881,97.975
859, 09:25:30,41.96224,261.52545,881.138494,97.975
860, 09:25:30,41.896504,261.532789,881.017756,97.975
861, 09:25:30,41.652817,260.887429,877.50071,97.975
862, 09:25:30,41.569563,260.363045,875.632812,97.975
863, 09:25:30,41.623658,260.191525,875.984375,97.975
864, 09:25:30,41.690775,260.020715,876.263494,97.975
865, 09:25:30,41.742266,259.930871,876.491477,97.975
866, 09:25:30,41.767243,259.87938,876.091619,97.975
867, 09:25:30,41.771228,259.787642,875.901989,97.975
868, 09:25:30,41.811829,259.715791,876.46804,97.975
869, 09:25:30,41.828796,259.719342,876.134233,97.975
870, 09:25:31,41.846078,259.692116,876.007812,97.975
871, 09:25:31,41.853535,259.689867,876.139205,97.975
872, 09:25:31,41.863557,259.660748,876.549716,97.975
873, 09:25:31,41.874014,259.667022,875.87429,97.975
874, 09:25:31,41.894926,259.714134,876.872869,97.975
875, 09:25:31,41.940262,259.946733,877.825284,97.975
876, 09:25:31,41.970368,260.101918,877.963778,97.975
877, 09:25:31,41.973524,260.17152,877.71946,97.975
878, 09:25:31,41.962161,260.29794,878.424006,97.975
879, 09:25:31,41.975655,260.410866,878.439631,97.975
880, 09:25:31,41.977904,260.559186,878.948864,97.975
881, 09:25:31,41.970565,260.683949,878.771307,97.975
882, 09:25:31,41.998303,260.87938,879.878551,97.975
883, 09:25:31,41.982994,261.02474,880.154119,97.975
884, 09:25:31,41.995423,261.14678,880.590909,97.975
885, 09:25:31,41.979206,261.304569,880.816051,97.975
886, 09:25:31,41.99491,261.489938,881.303267,97.975
887, 09:25:31,41.998737,261.646307,881.650568,97.975
888, 09:25:31,41.988755,261.844579,882.283381,97.975
889, 09:25:31,41.993332,262.061908,882.408381,97.975
890, 09:25:31,41.985993,262.249645,883.40696,97.975
891, 09:25:31,41.846907,262.005208,880.8125,97.975
892, 09:25:31,41.623658,261.39607,878.805398,97.975
893, 09:25:31,41.561474,260.96946,876.995739,97.975
894, 09:25:31,41.600616,260.767756,876.96733,97.975
895, 09:25:31,41.712871,260.704901,877.24929,97.975
896, 09:25:31,41.737255,260.678149,877.878551,97.975
897, 09:25:31,41.762074,260.639915,877.370739,97.975
898, 09:25:31,41.778488,260.584991,878.129261,97.975
899, 09:25:31,41.806542,260.563092,877.497869,97.975
900, 09:25:32,41.831755,260.601326,878.321023,97.95
901, 09:25:32,41.838936,260.633286,878.137784,97.95
902, 09:25:32,41.842093,260.58357,878.211648,97.95
903, 09:25:32,41.85468,260.591974,877.992188,97.95
904, 09:25:32,41.868647,260.619673,878.629972,97.95
905, 09:25:32,41.89607,260.700047,878.478693,97.95
906, 09:25:32,41.913786,260.793442,879.610085,97.95
907, 09:25:32,41.929017,260.917259,879.705256,97.95
908, 09:25:32,41.939946,261.087831,880.098011,97.95
909, 09:25:32,41.966461,261.259706,880.68608,97.95
910, 09:25:32,41.965199,261.4259,881.211648,97.95
911, 09:25:32,41.969342,261.50651,881.095881,97.95
912, 09:25:32,41.972025,261.653291,881.328835,97.95
913, 09:25:32,41.973288,261.800071,880.90554,97.95
914, 09:25:32,41.991122,261.944957,881.786222,97.95
915, 09:25:32,41.98256,262.117188,882.31392,97.95
916, 09:25:32,41.976681,262.248698,883.12571,97.95
917, 09:25:32,41.990885,262.451823,882.870028,97.95
918, 09:25:32,42.013258,262.624527,883.775568,97.95
919, 09:25:32,41.987847,262.805871,883.920455,97.95
920, 09:25:32,41.984375,262.952178,884.78125,97.95
921, 09:25:32,42.010298,263.211293,884.739347,97.95
922, 09:25:32,41.947798,263.263376,885.452415,97.95
923, 09:25:32,41.714015,262.876894,882.471591,97.95
924, 09:25:32,41.604956,262.294981,880.786932,97.95
925, 09:25:32,41.607205,262.105232,880.006392,97.95
926, 09:25:32,41.667693,262.028646,880.15767,97.95
927, 09:25:32,41.724747,262.032197,880.627841,97.95
928, 09:25:32,41.769571,262.024148,880.798295,97.95
929, 09:25:32,41.770478,262.071851,880.519176,97.95
930, 09:25:33,41.777659,261.99349,880.889915,97.95
931, 09:25:33,41.807726,262.034446,881.419744,97.95
932, 09:25:33,41.813408,262.042969,881.524858,97.95
933, 09:25:33,41.806818,262.068655,881.596591,97.95
934, 09:25:33,41.821575,262.022491,881.524148,97.95
935, 09:25:33,41.851247,262.073627,881.234375,97.95
936, 09:25:33,41.860164,262.148201,881.857955,97.95
937, 09:25:33,41.899976,262.203243,881.847301,97.95
938, 09:25:33,41.921836,262.349313,882.752131,97.95
939, 09:25:33,41.932173,262.533262,882.807528,97.95
940, 09:25:33,41.947088,262.699219,883.916903,97.95
941, 09:25:33,41.94985,262.768111,883.43821,97.95
942, 09:25:33,41.956873,262.849313,883.814631,97.95
943, 09:25:33,41.94764,262.994437,884.526278,97.95
944, 09:25:33,41.956045,263.128551,885.208807,97.95
945, 09:25:33,41.949811,263.249053,884.713068,97.95
946, 09:25:33,41.970723,263.39465,885.629261,97.95
947, 09:25:33,41.962161,263.58866,885.662642,97.95
948, 09:25:33,41.958767,263.778291,886.40554,97.95
949, 09:25:33,41.969776,263.903646,886.294034,97.95
950, 09:25:33,41.985559,264.017756,886.776989,97.95
951, 09:25:33,41.967606,264.180753,886.789062,97.95
952, 09:25:33,41.929214,264.279593,887.052557,97.95
953, 09:25:33,41.747514,263.929096,884.963778,97.95
954, 09:25:33,41.609336,263.456795,883.664062,97.95
955, 09:25:33,41.580216,263.085346,881.40696,97.95
956, 09:25:33,41.633838,263.100852,883.303977,97.95
957, 09:25:33,41.7122,263.178267,883.285511,97.95
958, 09:25:33,41.753196,263.186198,883.497869,97.95
959, 09:25:33,41.784367,263.255563,883.445312,97.95
960, 09:25:34,41.825284,263.330019,884.434659,97.7
961, 09:25:34,41.836569,263.395597,883.22017,97.7
962, 09:25:34,41.831242,263.434067,884.539062,97.7
963, 09:25:34,41.80599,263.343632,883.806108,97.7
964, 09:25:34,41.806305,263.277344,883.789062,97.7
965, 09:25:34,41.826823,263.251302,883.715199,97.7
966, 09:25:34,41.872633,263.40767,884.477273,97.7
967, 09:25:34,41.893111,263.542969,884.96804,97.7
968, 09:25:34,41.908775,263.648674,885.923295,97.7
969, 09:25:34,41.921914,263.771425,885.747869,97.7
970, 09:25:34,41.922546,263.900213,885.84446,97.7
971, 09:25:34,41.916627,263.989465,886.050426,97.7
972, 09:25:34,41.933712,264.092803,887.005682,97.7
973, 09:25:34,41.950245,264.341738,887.797585,97.7
974, 09:25:34,41.968,264.447562,888.299006,97.7
975, 09:25:34,41.950639,264.549834,887.65696,97.7
976, 09:25:34,41.955019,264.642045,888.690341,97.7
977, 09:25:34,41.937973,264.757576,887.954545,97.7
978, 09:25:34,41.94914,264.899976,888.402699,97.7
979, 09:25:34,41.948469,265.0509,888.771307,97.7
980, 09:25:34,41.925505,265.143466,889.375,97.7
981, 09:25:34,41.752999,264.810606,886.036932,97.7
982, 09:25:34,41.594776,264.337831,884.740057,97.7
983, 09:25:34,41.591264,263.984967,883.560369,97.7
984, 09:25:34,41.646465,263.91714,884.715909,97.7
985, 09:25:34,41.719539,263.920455,884.426136,97.7
986, 09:25:34,41.764283,263.900331,885.197443,97.7
987, 09:25:34,41.789497,263.924361,885.364347,97.7
988, 09:25:34,41.804845,263.970407,885.958807,97.7
989, 09:25:34,41.816761,263.981534,885.403409,97.7
990, 09:25:35,41.814157,263.974669,885.06392,97.7
991, 09:25:35,41.801215,263.87429,884.731534,97.7
992, 09:25:35,41.796244,263.733902,885.508523,97.7
993, 09:25:35,41.838384,263.77036,885.34375,97.7
994, 09:25:35,41.868016,263.813329,885.476562,97.7
995, 09:25:35,41.891572,263.907197,885.667614,97.7
996, 09:25:35,41.923098,263.979048,886.476562,97.7
997, 09:25:35,41.944642,264.125118,886.824574,97.7
998, 09:25:35,41.939157,264.244555,886.825284,97.7
999, 09:25:35,41.93892,264.38589,886.71875,97.7
1000, 09:25:35,41.953598,264.44839,887.889205,97.7
1001, 09:25:35,41.950758,264.55303,887.548295,97.7
1002, 09:25:35,41.960385,264.682765,888.150568,97.7
1003, 09:25:35,41.943695,264.68241,887.602983,97.7
1004, 09:25:35,41.940972,264.781723,888.417614,97.7
1005, 09:25:35,41.961372,264.902107,888.889915,97.7
1006, 09:25:35,41.938368,265.007812,888.21733,97.7
1007, 09:25:35,41.803267,264.777225,887.330966,97.7
1008, 09:25:35,41.630563,264.096236,885.247869,97.7
1009, 09:25:35,41.604916,263.440223,882.703835,97.7
1010, 09:25:35,41.670889,263.253196,883.442472,97.7
1011, 09:25:35,41.767637,263.137192,883.456676,97.7
1012, 09:25:35,41.826626,263.060369,884.163352,97.7
1013, 09:25:35,41.874724,262.94188,883.514915,97.7
1014, 09:25:35,41.880327,262.783499,883.175426,97.7
1015, 09:25:35,41.899266,262.75367,883.385653,97.7
1016, 09:25:35,41.913707,262.683357,883.480824,97.7
1017, 09:25:35,41.92081,262.54794,882.855824,97.7
1018, 09:25:35,41.939315,262.417377,882.546875,97.7
1019, 09:25:35,41.937342,262.27036,881.892045,97.7
1020, 09:25:36,41.988913,262.291548,882.823153,97.7
1021, 09:25:36,42.025253,262.259943,882.923295,97.7
1022, 09:25:36,42.060961,262.389323,883.739347,97.7
1023, 09:25:36,42.062618,262.453007,883.277699,97.7
1024, 09:25:36,42.092764,262.571851,884.306108,97.7
1025, 09:25:36,42.116477,262.652936,884.065341,97.7
1026, 09:25:36,42.113715,262.683949,884.799716,97.7
1027, 09:25:36,42.120226,262.772135,884.666903,97.7
1028, 09:25:36,42.131589,262.879616,884.945312,97.7
1029, 09:25:36,42.114426,262.943182,884.684659,97.7
1030, 09:25:36,42.125986,263.012429,884.892756,97.7
1031, 09:25:36,42.127959,263.156132,885.357244,97.7
1032, 09:25:36,42.132181,263.263494,885.90483,97.7
1033, 09:25:36,42.109178,263.348366,885.65554,97.7
1034, 09:25:36,41.966304,263.004498,884.146307,97.7
1035, 09:25:36,41.808949,262.232244,881.166193,97.7
1036, 09:25:36,41.831242,261.693537,880.206676,97.7
1037, 09:25:36,41.88881,261.157907,879.566761,97.7
1038, 09:25:36,41.955492,260.984375,879.514205,97.7
1039, 09:25:36,42.016454,260.843868,879.182528,97.7
1040, 09:25:36,42.02687,260.604759,879.429688,97.7
1041, 09:25:36,42.048453,260.428504,878.730114,97.7
1042, 09:25:36,42.106652,260.301018,879.178267,97.7
1043, 09:25:36,42.144531,260.205848,879.115767,97.7
1044, 09:25:36,42.160788,260.102628,879.229403,97.7
1045, 09:25:36,42.170139,259.993845,878.835227,97.7
1046, 09:25:36,42.184107,259.924479,878.899148,97.7
1047, 09:25:36,42.22818,259.910866,878.723722,97.7
1048, 09:25:36,42.258562,259.957505,880.122869,97.7
1049, 09:25:36,42.274306,259.983428,879.258523,97.7
1050, 09:25:37,42.30236,260.069484,879.635653,97.675
1051, 09:25:37,42.322719,260.205374,879.408381,97.675
1052, 09:25:37,42.310488,260.282789,880.310369,97.675
1053, 09:25:37,42.33136,260.40696,879.637784,97.675
1054, 09:25:37,42.305674,260.541075,879.496449,97.675
1055, 09:25:37,42.329664,260.646662,880.425426,97.675
1056, 09:25:37,42.333176,260.813447,881.068182,97.675
1057, 09:25:37,42.32852,260.870028,880.740057,97.675
1058, 09:25:37,42.333254,261.127131,881.75142,97.675
1059, 09:25:37,42.322167,261.267637,882.03196,97.675
1060, 09:25:37,42.36916,261.47964,883.357955,97.675
1061, 09:25:37,42.344263,261.656842,883.142756,97.675
1062, 09:25:37,42.253275,261.594579,882.183949,97.675
1063, 09:25:37,42.009036,260.939512,878.787642,97.675
1064, 09:25:37,41.93458,260.263021,876.913352,97.675
1065, 09:25:37,41.988636,259.921402,876.571023,97.675
1066, 09:25:37,42.062224,259.695194,877.483665,97.675
1067, 09:25:37,42.122988,259.619437,877.054688,97.675
1068, 09:25:37,42.148477,259.494673,877.428267,97.675
1069, 09:25:37,42.150174,259.367661,876.961648,97.675
1070, 09:25:37,42.181226,259.298414,877.097301,97.675
1071, 09:25:37,42.204822,259.273082,876.700994,97.675
1072, 09:25:37,42.233546,259.256037,876.783381,97.675
1073, 09:25:37,42.245305,259.233546,876.523438,97.675
1074, 09:25:37,42.250868,259.201468,877.382102,97.675
1075, 09:25:37,42.262192,259.244437,877.006392,97.675
1076, 09:25:37,42.292653,259.284209,877.878551,97.675
1077, 09:25:37,42.321299,259.43312,877.769176,97.675
1078, 09:25:37,42.322562,259.548651,878.817472,97.675
1079, 09:25:37,42.34229,259.686435,878.479403,97.675
1080, 09:25:38,42.349905,259.784564,878.727273,97.65
1081, 09:25:38,42.359848,259.977273,878.789773,97.65
1082, 09:25:38,42.343,260.135062,879.327415,97.65
1083, 09:25:38,42.347656,260.264086,879.632812,97.65
1084, 09:25:38,42.341027,260.486151,880.803267,97.65
1085, 09:25:38,42.297743,260.695786,879.697443,97.65
1086, 09:25:38,42.312382,260.772846,880.262074,97.65
1087, 09:25:38,42.327849,260.936198,881.389915,97.65
1088, 09:25:38,42.318103,261.124763,881.541193,97.65
1089, 09:25:38,42.331873,261.383878,882.087358,97.65
1090, 09:25:38,42.306068,261.511482,882.634233,97.65
1091, 09:25:38,42.32122,261.742543,882.841619,97.65
1092, 09:25:38,42.23619,261.756866,882.791193,97.65
1093, 09:25:38,41.980824,261.233191,879.427557,97.65
1094, 09:25:38,41.87283,260.677202,877.980824,97.65
1095, 09:25:38,41.906289,260.502012,877.53196,97.65
1096, 09:25:38,41.983665,260.473248,878.245739,97.65
1097, 09:25:38,42.031368,260.554806,878.723722,97.65
1098, 09:25:38,42.04727,260.463778,878.955966,97.65
1099, 09:25:38,42.058475,260.39465,878.171875,97.65
1100, 09:25:38,42.074732,260.357718,878.049716,97.65
1101, 09:25:38,42.072483,260.385062,878.159801,97.65
1102, 09:25:38,42.073666,260.424124,878.774858,97.65
1103, 09:25:38,42.086135,260.418916,878.649858,97.65
1104, 09:25:38,42.083925,260.46437,878.897017,97.65
1105, 09:25:38,42.103535,260.512784,879.079545,97.65
1106, 09:25:38,42.113518,260.684777,880.333097,97.65
1107, 09:25:38,42.158973,260.810724,880.225142,97.65
1108, 09:25:38,42.154672,260.94839,879.815341,97.65
1109, 09:25:38,42.155658,261.094815,880.287642,97.65
1110, 09:25:39,42.160985,261.246686,881.235795,97.65
1111, 09:25:39,42.147846,261.370147,881.149858,97.65
1112, 09:25:39,42.15625,261.528883,882.042614,97.65
1113, 09:25:39,42.156368,261.642401,882.010653,97.65
1114, 09:25:39,42.150805,261.818419,881.617898,97.65
1115, 09:25:39,42.151002,261.982836,882.547585,97.65
1116, 09:25:39,42.128354,262.205611,883.307528,97.65
1117, 09:25:39,42.135614,262.342921,883.429688,97.65
1118, 09:25:39,42.145636,262.516454,884.104403,97.65
1119, 09:25:39,42.17006,262.808002,884.413352,97.65
1120, 09:25:39,42.171402,262.90767,885.036932,97.65
1121, 09:25:39,42.16063,263.075166,884.726562,97.65
1122, 09:25:39,42.087279,263.156723,885.076705,97.65
1123, 09:25:39,41.88226,262.789299,882.534091,97.65
1124, 09:25:39,41.759628,262.322917,881.002841,97.65
1125, 09:25:39,41.79364,262.230824,880.612216,97.65
1126, 09:25:39,41.857757,262.280658,881.911222,97.65
1127, 09:25:39,41.886877,262.345289,881.676847,97.65
1128, 09:25:39,41.90483,262.36553,882.173295,97.65
1129, 09:25:39,41.920178,262.420573,882.441051,97.65
1130, 09:25:39,41.939907,262.466974,882.989347,97.65
1131, 09:25:39,41.939118,262.511482,882.759233,97.65
1132, 09:25:39,41.936514,262.528291,882.141335,97.65
1133, 09:25:39,41.920257,262.441643,882.700994,97.65
1134, 09:25:39,41.934107,262.527225,882.367898,97.65
1135, 09:25:39,41.966185,262.616359,883.147017,97.65
1136, 09:25:39,41.987492,262.753196,883.729403,97.65
1137, 09:25:39,42.008444,262.990294,884.203125,97.65
1138, 09:25:39,42.011166,263.128196,884.672585,97.65
1139, 09:25:39,42.026949,263.279711,885.206676,97.65
1140, 09:25:40,42.040799,263.388021,885.589489,97.65
1141, 09:25:40,42.04364,263.587358,886.044034,97.65
1142, 09:25:40,42.039102,263.734257,886.027699,97.65
1143, 09:25:40,42.01381,263.816998,886.041193,97.65
1144, 09:25:40,42.015941,263.96733,885.954545,97.65
1145, 09:25:40,42.013928,264.019058,886.577415,97.65
1146, 09:25:40,42.009115,264.211056,887.706676,97.65
1147, 09:25:40,41.991201,264.42294,886.401278,97.65
1148, 09:25:40,41.989307,264.596236,886.682528,97.65
1149, 09:25:40,41.998027,264.752131,887.600852,97.65
1150, 09:25:40,42.010574,264.936553,889.110795,97.65
1151, 09:25:40,41.901594,264.914062,888.333807,97.65
1152, 09:25:40,41.693695,264.387429,885.174006,97.65
1153, 09:25:40,41.631313,264.170455,884.622159,97.65
1154, 09:25:40,41.674361,264.148082,885.456676,97.65
1155, 09:25:40,41.717369,264.198509,885.176847,97.65
1156, 09:25:40,41.766335,264.289062,886.083807,97.65
1157, 09:25:40,41.797072,264.324455,886.330256,97.65
1158, 09:25:40,41.838897,264.432884,886.372869,97.65
1159, 09:25:40,41.839607,264.50651,887.183949,97.65
1160, 09:25:40,41.82994,264.600616,887.365057,97.65
1161, 09:25:40,41.791667,264.609848,886.284091,97.65
1162, 09:25:40,41.786695,264.62429,886.705966,97.65
1163, 09:25:40,41.799637,264.618608,886.234375,97.65
1164, 09:25:40,41.833254,264.741714,887.166193,97.65
1165, 09:25:40,41.854837,264.896425,887.549006,97.65
1166, 09:25:40,41.861624,265.044152,888.139915,97.65
1167, 09:25:40,41.874448,265.196259,888.450284,97.65
1168, 09:25:40,41.87863,265.293087,888.846591,97.65
1169, 09:25:40,41.870305,265.392164,889.25071,97.65
1170, 09:25:41,41.874487,265.575639,889.962358,97.65
1171, 09:25:41,41.867543,265.702533,889.039062,97.65
1172, 09:25:41,41.870857,265.773556,889.169744,97.65
1173, 09:25:41,41.863163,265.933239,889.28125,97.65
1174, 09:25:41,41.856574,266.060724,890.361506,97.65
1175, 09:25:41,41.865491,266.218158,890.493608,97.65
1176, 09:25:41,41.885377,266.44259,891.683949,97.65
1177, 09:25:41,41.874921,266.533854,891.53267,97.65
1178, 09:25:41,41.77399,266.712121,891.522727,97.65
1179, 09:25:41,41.626578,266.272254,888.943182,97.65
1180, 09:25:41,41.492069,265.863045,887.141335,97.65
1181, 09:25:41,41.49854,265.803859,887.357244,97.65
1182, 09:25:41,41.532158,265.809541,888.053267,97.65
1183, 09:25:41,41.585227,265.888731,888.125,97.65
1184, 09:25:41,41.620541,266.018821,888.658381,97.65
1185, 09:25:41,41.645991,265.99053,888.755682,97.65
1186, 09:25:41,41.650568,266.017045,889.284091,97.65
1187, 09:25:41,41.64532,266.092211,888.754972,97.65
1188, 09:25:41,41.626263,266.133049,889.21875,97.65
1189, 09:25:41,41.62863,266.13447,889.002841,97.65
1190, 09:25:41,41.635969,266.160275,889.799716,97.65
1191, 09:25:41,41.663865,266.261009,889.398438,97.65
1192, 09:25:41,41.664852,266.381392,890.572443,97.65
1193, 09:25:41,41.682805,266.472656,889.929688,97.65
1194, 09:25:41,41.702178,266.565814,890.676136,97.65
1195, 09:25:41,41.707978,266.679332,890.266335,97.65
1196, 09:25:41,41.70928,266.797822,890.948864,97.65
1197, 09:25:41,41.699455,266.927438,890.661222,97.65
1198, 09:25:41,41.706439,267.072443,891.849432,97.65
1199, 09:25:41,41.689591,267.153054,891.955256,97.65
1200, 09:25:42,41.688329,267.24349,892.296165,97.675
1201, 09:25:42,41.684186,267.393939,891.920455,97.675
1202, 09:25:42,41.684422,267.586411,892.640625,97.675
1203, 09:25:42,41.691525,267.686316,892.669034,97.675
1204, 09:25:42,41.696023,267.839962,893.869318,97.675
1205, 09:25:42,41.683949,267.995502,893.651989,97.675
1206, 09:25:42,41.620107,268.023201,893.082386,97.675
1207, 09:25:42,41.367464,267.576823,890.81321,97.675
1208, 09:25:42,41.254972,267.202888,889.083807,97.675
1209, 09:25:42,41.241793,267.02983,888.914773,97.675
1210, 09:25:42,41.30887,267.065341,890.065341,97.675
1211, 09:25:42,41.357284,267.085582,889.712358,97.675
1212, 09:25:42,41.380445,267.080256,890.40767,97.675
1213, 09:25:42,41.392401,267.137902,890.546165,97.675
1214, 09:25:42,41.405579,267.107836,890.408381,97.675
1215, 09:25:42,41.432528,267.154593,889.981534,97.675
1216, 09:25:42,41.438486,267.184304,890.889915,97.675
1217, 09:25:42,41.434186,267.179451,890.579545,97.675
1218, 09:25:42,41.433278,267.167259,890.676847,97.675
1219, 09:25:42,41.450521,267.20715,890.382102,97.675
1220, 09:25:42,41.485046,267.316406,892.074574,97.675
1221, 09:25:42,41.509312,267.391572,892.025568,97.675
1222, 09:25:42,41.526555,267.49349,892.557528,97.675
1223, 09:25:42,41.525331,267.587831,891.77983,97.675
1224, 09:25:42,41.509272,267.709162,892.283381,97.675
1225, 09:25:42,41.521978,267.839134,892.989347,97.675
1226, 09:25:42,41.524897,267.936435,892.916903,97.675
1227, 09:25:42,41.520123,267.975616,892.598011,97.675
1228, 09:25:42,41.513889,268.148674,893.383523,97.675
1229, 09:25:42,41.518742,268.258404,894.081676,97.675
1230, 09:25:43,41.53346,268.373106,894.607955,97.95
1231, 09:25:43,41.546796,268.520123,894.015625,97.95
1232, 09:25:43,41.545021,268.697562,894.654119,97.95
1233, 09:25:43,41.52182,268.772846,895.287642,97.95
1234, 09:25:43,41.54723,268.956084,895.225142,97.95
1235, 09:25:43,41.526397,268.989702,895.245028,97.95
1236, 09:25:43,41.445431,268.96224,894.767756,97.95
1237, 09:25:43,41.184501,268.422822,892.264205,97.95
1238, 09:25:43,41.067432,268.062145,890.514915,97.95
1239, 09:25:43,41.105824,267.950994,890.444602,97.95
1240, 09:25:43,41.161892,267.923651,891.121449,97.95
1241, 09:25:43,41.202257,267.967566,891.555398,97.95
1242, 09:25:43,41.210661,267.968158,891.817472,97.95
1243, 09:25:43,41.217645,267.937973,891.485795,97.95
1244, 09:25:43,41.239149,267.96508,892.395597,97.95
1245, 09:25:43,41.26164,267.945431,891.78054,97.95
1246, 09:25:43,41.262981,267.967921,891.952415,97.95
1247, 09:25:43,41.276357,267.970644,891.713068,97.95
1248, 09:25:43,41.284525,267.95348,892.590199,97.95
1249, 09:25:43,41.27687,267.93241,892.120028,97.95
1250, 09:25:43,41.31396,268.035156,892.645597,97.95
1251, 09:25:43,41.338897,268.153054,892.114347,97.95
1252, 09:25:43,41.361032,268.245502,893.356534,97.95
1253, 09:25:43,41.37358,268.357008,892.96875,97.95
1254, 09:25:43,41.390073,268.455256,893.978693,97.95
1255, 09:25:43,41.381313,268.542614,893.53125,97.95
1256, 09:25:43,41.389639,268.639086,893.62429,97.95
1257, 09:25:43,41.36628,268.75509,893.482244,97.95
1258, 09:25:43,41.375237,268.878551,894.68892,97.95
1259, 09:25:43,41.368924,268.986979,893.833807,97.95
1260, 09:25:44,41.381708,269.091146,895.223011,97.95
1261, 09:25:44,41.402028,269.216501,894.827415,97.95
1262, 09:25:44,41.419192,269.435606,895.977273,97.95
1263, 09:25:44,41.404908,269.547585,896.444602,97.95
1264, 09:25:44,41.392085,269.639796,896.739347,97.95
1265, 09:25:44,41.420849,269.811316,897.524148,97.95
1266, 09:25:44,41.419942,269.946851,897.209517,97.95
1267, 09:25:44,41.355271,269.919034,896.480114,97.95
1268, 09:25:44,41.062895,269.433949,894.004261,97.95
1269, 09:25:44,40.960582,269.116122,892.262074,97.95
1270, 09:25:44,40.957663,268.930753,892.524858,97.95
1271, 09:25:44,41.022175,268.995975,892.953125,97.95
1272, 09:25:44,41.080295,269.007931,893.618608,97.95
1273, 09:25:44,41.102865,269.090791,893.328835,97.95
1274, 09:25:44,41.108862,269.113991,894.206676,97.95
1275, 09:25:44,41.113715,269.076941,893.316761,97.95
1276, 09:25:44,41.157749,269.1366,894.265625,97.95
1277, 09:25:44,41.142874,269.163471,894.543324,97.95
1278, 09:25:44,41.142322,269.117306,894.348722,97.95
1279, 09:25:44,41.136285,269.115294,893.569602,97.95
1280, 09:25:44,41.161222,269.219934,894.274148,97.95
1281, 09:25:44,41.172901,269.295691,894.569602,97.95
1282, 09:25:44,41.220881,269.3866,895.21733,97.95
1283, 09:25:44,41.249369,269.537405,895.375,97.95
1284, 09:25:44,41.248382,269.673177,895.556108,97.95
1285, 09:25:44,41.26598,269.747751,895.546165,97.95
1286, 09:25:44,41.257655,269.873816,896.703125,97.95
1287, 09:25:44,41.250039,269.901634,896.418324,97.95
1288, 09:25:44,41.269137,270.037524,897.62571,97.95
1289, 09:25:44,41.270636,270.13009,897.658381,97.95
1290, 09:25:45,41.269886,270.243845,897.931818,97.95
1291, 09:25:45,41.263218,270.387192,897.635653,97.95
1292, 09:25:45,41.256747,270.484257,897.803267,97.95
1293, 09:25:45,41.265467,270.665246,898.3125,97.95
1294, 09:25:45,41.26819,270.794626,898.56321,97.95
1295, 09:25:45,41.285275,270.95715,898.68892,97.95
1296, 09:25:45,41.287524,271.082268,899.024858,97.95
1297, 09:25:45,41.272491,271.193419,899.237216,97.95
1298, 09:25:45,41.10026,270.910156,897.821733,97.95
1299, 09:25:45,40.873856,270.403764,894.973722,97.95
1300, 09:25:45,40.843829,270.293324,895.012784,97.95
1301, 09:25:45,40.888968,270.316525,895.433239,97.95
1302, 09:25:45,40.96654,270.399148,896.289773,97.95
1303, 09:25:45,41.007142,270.478338,896.520597,97.95
1304, 09:25:45,41.022925,270.47313,896.793324,97.95
1305, 09:25:45,41.026949,270.543442,896.962358,97.95
1306, 09:25:45,41.047585,270.619555,897.191761,97.95
1307, 09:25:45,41.042495,270.639323,897.09446,97.95
1308, 09:25:45,41.020084,270.609493,896.671165,97.95
1309, 09:25:45,41.023201,270.632102,897.261364,97.95
1310, 09:25:45,41.03922,270.659801,897.475852,97.95
1311, 09:25:45,41.070549,270.748106,897.903409,97.95
1312, 09:25:45,41.111585,270.903883,898.710227,97.95
1313, 09:25:45,41.12575,271.000355,898.050426,97.95
1314, 09:25:45,41.131747,271.063802,899.036222,97.95
1315, 09:25:45,41.139402,271.217448,899.199574,97.95
1316, 09:25:45,41.132457,271.352865,899.571733,97.95
1317, 09:25:45,41.135614,271.414418,899.770597,97.95
1318, 09:25:45,41.130011,271.47242,898.973722,97.95
1319, 09:25:45,41.130327,271.540128,899.976562,97.95
1320, 09:25:46,41.142795,271.602628,899.987926,97.975
1321, 09:25:46,41.135101,271.742424,899.690341,97.975
1322, 09:25:46,41.130997,271.866477,900.0625,97.975
1323, 09:25:46,41.131076,271.968513,900.367898,97.975
1324, 09:25:46,41.14315,272.109848,900.803977,97.975
1325, 09:25:46,41.152068,272.216146,900.93892,97.975
1326, 09:25:46,41.102707,272.300545,901.445312,97.975
1327, 09:25:46,40.893032,271.883641,898.654119,97.975
1328, 09:25:46,40.765388,271.535748,897.038352,97.975
1329, 09:25:46,40.761679,271.394886,896.857955,97.975
1330, 09:25:46,40.81104,271.445904,897.536222,97.975
1331, 09:25:46,40.894926,271.47455,898.193892,97.975
1332, 09:25:46,40.911932,271.485795,898.235795,97.975
1333, 09:25:46,40.898595,271.495028,897.973011,97.975
1334, 09:25:46,40.951862,271.57339,898.676136,97.975
1335, 09:25:46,40.956755,271.574337,898.213068,97.975
1336, 09:25:46,40.939986,271.528291,898.300426,97.975
1337, 09:25:46,40.930516,271.438329,897.925426,97.975
1338, 09:25:46,40.932015,271.471236,898.776278,97.975
1339, 09:25:46,40.949653,271.499527,898.670455,97.975
1340, 09:25:46,40.989386,271.625829,899.931108,97.975
1341, 09:25:46,41.00797,271.673532,899.27983,97.975
1342, 09:25:46,41.028015,271.745502,899.541193,97.975
1343, 09:25:46,41.019018,271.826468,900.075284,97.975
1344, 09:25:46,41.046638,271.950521,900.160511,97.975
1345, 09:25:46,41.060724,272.03776,900.641335,97.975
1346, 09:25:46,41.037445,272.07777,900.716619,97.975
1347, 09:25:46,41.048729,272.182173,900.522017,97.975
1348, 09:25:46,41.029593,272.233191,900.953125,97.975
1349, 09:25:46,41.052715,272.352273,901.039773,97.975
1350, 09:25:47,41.044665,272.428504,901.045455,97.975
1351, 09:25:47,41.058791,272.573153,901.46733,97.975
1352, 09:25:47,41.074613,272.634351,902.215199,97.975
1353, 09:25:47,41.080571,272.74929,902.203125,97.975
1354, 09:25:47,40.976405,272.660748,900.59233,97.975
1355, 09:25:47,40.73473,272.057884,898.131392,97.975
1356, 09:25:47,40.67006,271.567945,897.115057,97.975
1357, 09:25:47,40.697088,271.502249,897.40554,97.975
1358, 09:25:47,40.766769,271.395005,897.554688,97.975
1359, 09:25:47,40.835661,271.365885,897.772017,97.975
1360, 09:25:47,40.851365,271.300781,897.710938,97.975
1361, 09:25:47,40.863794,271.204072,897.610795,97.975
1362, 09:25:47,40.893111,271.110204,897.902699,97.975
1363, 09:25:47,40.899148,271.060606,897.340909,97.975
1364, 09:25:47,40.909328,270.881392,897.180398,97.975
1365, 09:25:47,40.933318,270.835464,897.399148,97.975
1366, 09:25:47,40.934817,270.729167,897.451705,97.975
1367, 09:25:47,40.972459,270.739347,897.055398,97.975
1368, 09:25:47,40.99057,270.799361,897.012074,97.975
1369, 09:25:47,41.023082,270.800308,897.824574,97.975
1370, 09:25:47,41.064157,270.827888,899.146307,97.975
1371, 09:25:47,41.07848,270.886009,898.421165,97.975
1372, 09:25:47,41.090238,270.917022,898.854403,97.975
1373, 09:25:47,41.098524,270.989228,898.114347,97.975
1374, 09:25:47,41.092487,271.025568,899.088068,97.975
1375, 09:25:47,41.121409,271.054569,898.654119,97.975
1376, 09:25:47,41.117148,271.096709,899.321733,97.975
1377, 09:25:47,41.106416,271.216027,898.824574,97.975
1378, 09:25:47,41.116951,271.291667,899.431818,97.975
1379, 09:25:47,41.136127,271.373343,899.34517,97.975
1380, 09:25:48,41.142558,271.468395,899.810369,97.975
1381, 09:25:48,41.168837,271.58937,899.925426,97.975
1382, 09:25:48,41.153883,271.644413,900.678977,97.975
1383, 09:25:48,40.949613,271.157552,896.914062,97.975
1384, 09:25:48,40.751499,270.601089,895.129261,97.975
1385, 09:25:48,40.752091,270.256274,894.355824,97.975
1386, 09:25:48,40.826468,270.022017,894.589489,97.975
1387, 09:25:48,40.928346,269.901989,894.846591,97.975
1388, 09:25:48,40.954782,269.8241,895.353693,97.975
1389, 09:25:48,40.992819,269.690104,894.78267,97.975
1390, 09:25:48,41.012311,269.472064,894.460227,97.975
1391, 09:25:48,41.037721,269.409091,894.198864,97.975
1392, 09:25:48,41.067314,269.319839,894.725852,97.975
1393, 09:25:48,41.092014,269.187973,893.96875,97.975
1394, 09:25:48,41.093829,269.066051,894.458807,97.975
1395, 09:25:48,41.130485,268.962476,893.416903,97.975
1396, 09:25:48,41.144413,268.930871,894.142045,97.975
1397, 09:25:48,41.20932,269.052202,894.398438,97.975
1398, 09:25:48,41.237532,269.060606,895.215909,97.975
1399, 09:25:48,41.263139,269.148319,895.529119,97.975
1400, 09:25:48,41.277186,269.197088,896.296165,97.975
1401, 09:25:48,41.294665,269.305398,895.596591,97.975
1402, 09:25:48,41.278725,269.310606,895.633523,97.975
1403, 09:25:48,41.265625,269.408144,896.059659,97.975
1404, 09:25:48,41.266059,269.404711,896.212358,97.975
1405, 09:25:48,41.274463,269.497159,895.599432,97.975
1406, 09:25:48,41.271622,269.585227,896.28125,97.975
1407, 09:25:48,41.281092,269.64678,896.639205,97.975
1408, 09:25:48,41.298887,269.752249,896.53054,97.975
1409, 09:25:48,41.294429,269.834517,896.848011,97.975
1410, 09:25:49,41.315814,269.943655,897.818182,97.975
1411, 09:25:49,41.321654,270.117898,896.875,97.975
1412, 09:25:49,41.281526,270.092685,897.21804,97.975
1413, 09:25:49,41.038826,269.516098,894.403409,97.975
1414, 09:25:49,40.918245,268.948864,892.826705,97.975
1415, 09:25:49,40.932331,268.701823,892.466619,97.975
1416, 09:25:49,41.027975,268.591974,892.523438,97.975
1417, 09:25:49,41.091185,268.539181,892.962358,97.975
1418, 09:25:49,41.11774,268.431345,893.525568,97.975
1419, 09:25:49,41.146899,268.299124,892.232244,97.975
1420, 09:25:49,41.167456,268.222538,892.792614,97.975
1421, 09:25:49,41.189789,268.124763,892.478693,97.975
1422, 09:25:49,41.184462,268.074692,892.334517,97.975
1423, 09:25:49,41.175663,267.952178,891.676136,97.975
1424, 09:25:49,41.193932,267.91276,891.590199,97.975
1425, 09:25:49,41.239978,267.874763,892.507102,97.975
1426, 09:25:49,41.237255,267.845762,891.526278,97.975
1427, 09:25:49,41.283302,267.945549,891.576705,97.975
1428, 09:25:49,41.316012,268.049361,892.341619,97.975
1429, 09:25:49,41.330374,268.14974,893.196733,97.975
1430, 09:25:49,41.317551,268.217803,893.397727,97.975
1431, 09:25:49,41.339055,268.34813,893.378551,97.975
1432, 09:25:49,41.336924,268.38151,893.774858,97.975
1433, 09:25:49,41.330177,268.410511,894.394886,97.975
1434, 09:25:49,41.321733,268.481297,894.240057,97.975
1435, 09:25:49,41.318458,268.559541,894.164062,97.975
1436, 09:25:49,41.321496,268.665246,894.508523,97.975
1437, 09:25:49,41.30303,268.777936,894.411932,97.975
1438, 09:25:49,41.29944,268.836293,894.932528,97.975
1439, 09:25:49,41.327217,269.01669,895.100142,97.975
1440, 09:25:50,41.354482,269.16714,895.761364,97.975
1441, 09:25:50,41.36628,269.322325,896.431108,97.975
1442, 09:25:50,41.281684,269.322798,895.564631,97.975
1443, 09:25:50,41.063842,268.759233,892.87642,97.975
1444, 09:25:50,40.958688,268.203717,891.40696,97.975
1445, 09:25:50,40.998106,268.079545,891.184659,97.975
1446, 09:25:50,41.075166,268.009115,891.651278,97.975
1447, 09:25:50,41.122909,268.012666,891.516335,97.975
1448, 09:25:50,41.148477,268.00651,891.987926,97.975
1449, 09:25:50,41.14532,267.932647,891.340199,97.975
1450, 09:25:50,41.180674,267.942116,891.862926,97.975
1451, 09:25:50,41.189473,267.924953,892.078125,97.975
1452, 09:25:50,41.184541,267.84955,892.054688,97.975
1453, 09:25:50,41.180358,267.81901,891.144176,97.975
1454, 09:25:50,41.18529,267.763258,892.127841,97.975
1455, 09:25:50,41.201823,267.732363,891.172585,97.975
1456, 09:25:50,41.233546,267.81901,892.334517,97.975
1457, 09:25:50,41.244555,267.912642,891.544034,97.975
1458, 09:25:50,41.27107,268.002131,892.637784,97.975
1459, 09:25:50,41.260022,268.002604,892.473011,97.975
1460, 09:25:50,41.294705,268.123698,892.520597,97.975
1461, 09:25:50,41.279474,268.169863,892.831676,97.975
1462, 09:25:50,41.297625,268.354522,893.399858,97.975
1463, 09:25:50,41.29431,268.432173,893.357244,97.975
1464, 09:25:50,41.285314,268.451113,893.99929,97.975
1465, 09:25:50,41.284091,268.519886,893.707386,97.975
1466, 09:25:50,41.287208,268.624408,894.652699,97.975
1467, 09:25:50,41.274661,268.760062,894.066051,97.975
1468, 09:25:50,41.290009,268.836411,894.296875,97.975
1469, 09:25:50,41.304056,269.007339,895.274148,97.975
1470, 09:25:51,41.305082,269.132576,895.957386,98.0
1471, 09:25:51,41.231692,269.077178,894.289773,98.0
1472, 09:25:51,41.001263,268.508996,892.627841,98.0
1473, 09:25:51,40.936987,268.126776,890.939631,98.0
1474, 09:25:51,40.980074,267.978575,891.348722,98.0
1475, 09:25:51,41.04652,267.931226,891.382812,98.0
1476, 09:25:51,41.11557,267.959872,892.171165,98.0
1477, 09:25:51,41.1308,267.925545,891.578835,98.0
1478, 09:25:51,41.171402,267.927083,892.335227,98.0
1479, 09:25:51,41.193695,268.02616,892.074574,98.0
1480, 09:25:51,41.174479,267.972775,892.149148,98.0
1481, 09:25:51,41.1628,267.813684,891.643466,98.0
1482, 09:25:51,41.16209,267.747633,891.866477,98.0
1483, 09:25:51,41.180674,267.731416,891.678267,98.0
1484, 09:25:51,41.192787,267.747396,891.833807,98.0
1485, 09:25:51,41.225616,267.858665,891.84233,98.0
1486, 09:25:51,41.251026,267.90554,891.990057,98.0
1487, 09:25:51,41.259272,267.945904,892.138494,98.0
1488, 09:25:51,41.23402,268.062855,892.283381,98.0
1489, 09:25:51,41.261758,268.171638,892.870739,98.0
1490, 09:25:51,41.256353,268.210346,892.955256,98.0
1491, 09:25:51,41.270794,268.323272,893.209517,98.0
1492, 09:25:51,41.267992,268.383523,893.011364,98.0
1493, 09:25:51,41.268663,268.49633,893.904119,98.0
1494, 09:25:51,41.273122,268.535748,894.046875,98.0
1495, 09:25:51,41.274187,268.616122,893.764915,98.0
1496, 09:25:51,41.275055,268.75509,894.195312,98.0
1497, 09:25:51,41.277462,268.958333,894.448864,98.0
1498, 09:25:51,41.282513,269.03125,895.227273,98.0
1499, 09:25:51,41.161261,268.876776,894.360085,98.0
1500, 09:25:52,40.951271,268.275687,891.441051,98.025
1501, 09:25:52,40.881037,267.719815,889.551847,98.025
1502, 09:25:52,40.952296,267.529711,890.294744,98.025
1503, 09:25:52,41.038786,267.426018,889.985085,98.025
1504, 09:25:52,41.10464,267.412879,890.923295,98.025
1505, 09:25:52,41.136679,267.335227,890.471591,98.025
1506, 09:25:52,41.165522,267.204901,890.979403,98.025
1507, 09:25:52,41.167101,266.959635,889.706676,98.025
1508, 09:25:52,41.201192,266.947798,890.007812,98.025
1509, 09:25:52,41.19622,266.793679,889.827415,98.025
1510, 09:25:52,41.204309,266.714725,889.419034,98.025
1511, 09:25:52,41.225773,266.602983,888.81108,98.025
1512, 09:25:52,41.254064,266.632931,889.700994,98.025
1513, 09:25:52,41.286813,266.65116,889.901278,98.025
1514, 09:25:52,41.301294,266.683239,890.025568,98.025
1515, 09:25:52,41.334044,266.734612,890.06108,98.025
1516, 09:25:52,41.350892,266.80599,890.262074,98.025
1517, 09:25:52,41.346315,266.812618,890.208097,98.025
1518, 09:25:52,41.360164,266.916193,890.357955,98.025
1519, 09:25:52,41.345289,266.969579,889.786222,98.025
1520, 09:25:52,41.362571,267.03705,890.955256,98.025
1521, 09:25:52,41.36849,267.148556,891.428267,98.025
1522, 09:25:52,41.37646,267.188092,891.577415,98.025
1523, 09:25:52,41.391098,267.324337,891.230114,98.025
1524, 09:25:52,41.374408,267.410156,891.776278,98.025
1525, 09:25:52,41.413747,267.558002,892.129261,98.025
1526, 09:25:52,41.432962,267.739228,893.210938,98.025
1527, 09:25:52,41.434699,267.852865,893.256392,98.025
1528, 09:25:52,41.366596,267.807647,893.024858,98.025
1529, 09:25:52,41.138297,267.251539,889.509233,98.025
1530, 09:25:53,41.020794,266.557647,887.266335,98.0
1531, 09:25:53,41.059304,266.13151,886.601562,98.0
1532, 09:25:53,41.162169,265.828362,886.87358,98.0
1533, 09:25:53,41.242503,265.647964,887.274148,98.0
1534, 09:25:53,41.274858,265.479877,886.754261,98.0
1535, 09:25:53,41.296283,265.292259,886.764915,98.0
1536, 09:25:53,41.337318,265.157789,886.441051,98.0
1537, 09:25:53,41.372633,265.068655,886.198864,98.0
1538, 09:25:53,41.386798,264.852154,885.939631,98.0
1539, 09:25:53,41.412247,264.716856,885.508523,98.0
1540, 09:25:53,41.434107,264.564157,885.580966,98.0
1541, 09:25:53,41.448864,264.486269,885.431818,98.0
1542, 09:25:53,41.482876,264.468513,885.697443,98.0
1543, 09:25:53,41.530777,264.491951,885.318182,98.0
1544, 09:25:53,41.553109,264.508759,886.038352,98.0
1545, 09:25:53,41.564591,264.534683,886.071733,98.0
1546, 09:25:53,41.573587,264.639796,886.753551,98.0
1547, 09:25:53,41.557015,264.684777,886.93821,98.0
1548, 09:25:53,41.579388,264.747633,886.809659,98.0
1549, 09:25:53,41.585069,264.856534,886.747159,98.0
1550, 09:25:53,41.53196,264.954782,886.359375,98.0
1551, 09:25:53,41.568734,265.001184,887.132102,98.0
1552, 09:25:53,41.582584,265.127486,887.296165,98.0
1553, 09:25:53,41.591106,265.193774,887.40696,98.0
1554, 09:25:53,41.61044,265.393821,888.976562,98.0
1555, 09:25:53,41.61119,265.518703,888.137784,98.0
1556, 09:25:53,41.629025,265.679688,889.441761,98.0
1557, 09:25:53,41.63297,265.805634,889.333807,98.0
1558, 09:25:53,41.622554,265.978456,889.586648,98.0
1559, 09:25:53,41.58069,265.998224,888.912642,98.0
1560, 09:25:54,41.325521,265.335464,886.637784,98.025
1561, 09:25:54,41.194168,264.51527,883.162642,98.025
1562, 09:25:54,41.268663,264.083925,883.276278,98.025
1563, 09:25:54,41.377683,263.809659,883.0,98.025
1564, 09:25:54,41.438289,263.698864,883.241477,98.025
1565, 09:25:54,41.457663,263.555279,883.144176,98.025
1566, 09:25:54,41.506708,263.412169,882.59517,98.025
1567, 09:25:54,41.540562,263.265625,882.244318,98.025
1568, 09:25:54,41.550781,263.207741,882.570312,98.025
1569, 09:25:54,41.579269,263.085346,882.418324,98.025
1570, 09:25:54,41.593829,262.987926,882.649148,98.025
1571, 09:25:54,41.608704,262.860677,882.709517,98.025
1572, 09:25:54,41.633681,262.77983,882.142045,98.025
1573, 09:25:54,41.668127,262.780895,881.742188,98.025
1574, 09:25:54,41.697009,262.844815,882.691051,98.025
1575, 09:25:54,41.703796,262.916312,882.62571,98.025
1576, 09:25:54,41.713305,262.977509,883.598011,98.025
1577, 09:25:54,41.705729,263.096354,883.43892,98.025
1578, 09:25:54,41.725773,263.177794,883.669034,98.025
1579, 09:25:54,41.721788,263.225024,883.727983,98.025
1580, 09:25:54,41.727667,263.311316,884.316761,98.025
1581, 09:25:54,41.707663,263.518348,883.720881,98.025
1582, 09:25:54,41.748343,263.659801,884.768466,98.025
1583, 09:25:54,41.764481,263.802912,884.581676,98.025
1584, 09:25:54,41.771662,263.924361,884.807528,98.025
1585, 09:25:54,41.767756,264.054688,885.475852,98.025
1586, 09:25:54,41.78705,264.230942,885.854403,98.025
1587, 09:25:54,41.780224,264.355824,886.399148,98.025
1588, 09:25:54,41.796836,264.526397,886.976562,98.025
1589, 09:25:54,41.797388,264.74491,887.191051,98.025
1590, 09:25:55,41.714055,264.756747,887.568892,98.05
1591, 09:25:55,41.475971,264.075166,883.519176,98.05
1592, 09:25:55,41.386877,263.357126,881.75071,98.05
1593, 09:25:55,41.452139,262.955374,881.612926,98.05
1594, 09:25:55,41.541351,262.851326,882.201705,98.05
1595, 09:25:55,41.610243,262.804214,881.68608,98.05
1596, 09:25:55,41.643821,262.752486,882.017756,98.05
1597, 09:25:55,41.679175,262.714134,882.327415,98.05
1598, 09:25:55,41.676136,262.580966,881.622159,98.05
1599, 09:25:55,41.675781,262.593158,882.098722,98.05
1600, 09:25:55,41.677794,262.476562,881.958807,98.05
1601, 09:25:55,41.674519,262.410866,881.550426,98.05
1602, 09:25:55,41.704624,262.350616,881.569602,98.05
1603, 09:25:55,41.721078,262.342211,881.808949,98.05
1604, 09:25:55,41.762981,262.409683,882.350142,98.05
1605, 09:25:55,41.784485,262.504498,882.805398,98.05
1606, 09:25:55,41.825876,262.618253,882.993608,98.05
1607, 09:25:55,41.81538,262.696615,882.713778,98.05
1608, 09:25:55,41.808041,262.805279,882.928267,98.05
1609, 09:25:55,41.821891,262.948627,883.379261,98.05
1610, 09:25:55,41.818734,263.043797,883.740057,98.05
1611, 09:25:55,41.806187,263.112689,882.963068,98.05
1612, 09:25:55,41.788628,263.392874,884.246449,98.05
1613, 09:25:55,41.805161,263.486979,884.393466,98.05
1614, 09:25:55,41.818024,263.545928,885.494318,98.05
1615, 09:25:55,41.804411,263.719105,884.942472,98.05
1616, 09:25:55,41.811829,263.876776,884.933949,98.05
1617, 09:25:55,41.827888,263.995028,885.59517,98.05
1618, 09:25:55,41.819563,264.106889,886.53054,98.05
1619, 09:25:55,41.76602,264.148911,885.72017,98.05
1620, 09:25:56,41.536182,263.507221,883.162642,98.05
1621, 09:25:56,41.447719,262.832268,881.041903,98.05
1622, 09:25:56,41.50651,262.468395,880.605824,98.05
1623, 09:25:56,41.593592,262.355587,880.318182,98.05
1624, 09:25:56,41.671954,262.317945,881.146307,98.05
1625, 09:25:56,41.689828,262.262192,881.206676,98.05
1626, 09:25:56,41.70206,262.197088,881.412642,98.05
1627, 09:25:56,41.742306,262.217448,881.409801,98.05
1628, 09:25:56,41.740491,262.2442,881.539062,98.05
1629, 09:25:56,41.744476,262.143939,881.159091,98.05
1630, 09:25:56,41.701902,261.96224,880.918324,98.05
1631, 09:25:56,41.733191,261.939631,880.68608,98.05
1632, 09:25:56,41.769571,261.892992,880.829545,98.05
1633, 09:25:56,41.792771,261.983902,881.227273,98.05
1634, 09:25:56,41.823509,262.094105,881.993608,98.05
1635, 09:25:56,41.833018,262.142045,881.934659,98.05
1636, 09:25:56,41.857165,262.280777,882.380682,98.05
1637, 09:25:56,41.849274,262.404356,882.431818,98.05
1638, 09:25:56,41.83791,262.513731,882.034091,98.05
1639, 09:25:56,41.854324,262.693182,882.627841,98.05
1640, 09:25:56,41.868608,262.808475,883.53267,98.05
1641, 09:25:56,41.864347,262.912642,883.271307,98.05
1642, 09:25:56,41.871686,263.05303,883.127841,98.05
1643, 09:25:56,41.861545,263.294863,883.641335,98.05
1644, 09:25:56,41.878867,263.354877,885.200284,98.05
1645, 09:25:56,41.882418,263.497159,885.173295,98.05
1646, 09:25:56,41.869318,263.652936,884.059659,98.05
1647, 09:25:56,41.881905,263.812382,885.169744,98.05
1648, 09:25:56,41.830216,263.906368,885.384233,98.05
1649, 09:25:56,41.605548,263.409446,882.541903,98.05
1650, 09:25:57,41.466422,262.584872,880.628551,98.05
1651, 09:25:57,41.507142,262.086766,878.989347,98.05
1652, 09:25:57,41.596591,261.903409,879.292614,98.05
1653, 09:25:57,41.661695,261.738873,879.240057,98.05
1654, 09:25:57,41.690854,261.640743,880.051847,98.05
1655, 09:25:57,41.694997,261.494555,879.231534,98.05
1656, 09:25:57,41.732481,261.390152,878.946023,98.05
1657, 09:25:57,41.76235,261.347183,879.168324,98.05
1658, 09:25:57,41.761009,261.220999,879.453835,98.05
1659, 09:25:57,41.772096,261.097538,879.073864,98.05
1660, 09:25:57,41.7689,261.01456,878.973722,98.05
1661, 09:25:57,41.801452,261.05161,878.633523,98.05
1662, 09:25:57,41.82919,261.042022,878.615767,98.05
1663, 09:25:57,41.858033,261.107244,879.080966,98.05
1664, 09:25:57,41.876657,261.165956,879.723011,98.05
1665, 09:25:57,41.882615,261.248224,880.279119,98.05
1666, 09:25:57,41.888652,261.401278,880.615057,98.05
1667, 09:25:57,41.896899,261.469105,880.212358,98.05
1668, 09:25:57,41.920099,261.589844,881.439631,98.05
1669, 09:25:57,41.927596,261.738755,881.017756,98.05
1670, 09:25:57,41.927675,261.863518,881.28054,98.05
1671, 09:25:57,41.918284,261.972656,881.62571,98.05
1672, 09:25:57,41.916943,262.179332,882.56179,98.05
1673, 09:25:57,41.945352,262.354522,882.879972,98.05
1674, 09:25:57,41.889757,262.584517,883.009943,98.05
1675, 09:25:57,41.918324,262.673532,883.18892,98.05
1676, 09:25:57,41.936356,262.866832,884.095881,98.05
1677, 09:25:57,41.954624,263.038589,884.598011,98.05
1678, 09:25:57,41.949416,263.150805,885.149148,98.05
1679, 09:25:57,41.837989,263.036695,883.612216,98.05
1680, 09:25:58,41.594302,262.305161,879.52983,98.025
1681, 09:25:58,41.528725,261.580492,877.889205,98.025
1682, 09:25:58,41.589055,261.312618,878.171165,98.025
1683, 09:25:58,41.663352,261.154356,878.508523,98.025
1684, 09:25:58,41.721275,261.041667,878.767045,98.025
1685, 09:25:58,41.741714,260.929214,878.112216,98.025
1686, 09:25:58,41.751263,260.740057,877.943182,98.025
1687, 09:25:58,41.784564,260.65767,877.786932,98.025
1688, 09:25:58,41.815262,260.588305,878.194602,98.025
1689, 09:25:58,41.832584,260.511955,878.014915,98.025
1690, 09:25:58,41.83503,260.387192,876.885653,98.025
1691, 09:25:58,41.845762,260.29723,877.337358,98.025
1692, 09:25:58,41.87425,260.350971,877.847301,98.025
1693, 09:25:58,41.892519,260.40483,878.201705,98.025
1694, 09:25:58,41.923019,260.490175,878.162642,98.025
1695, 09:25:58,41.93024,260.631155,877.431818,98.025
1696, 09:25:58,41.976997,260.883168,880.245028,98.025
1697, 09:25:58,41.983625,260.887902,879.597301,98.025
1698, 09:25:58,41.964765,260.94259,880.175426,98.025
1699, 09:25:58,41.980824,261.081203,880.265625,98.025
1700, 09:25:58,41.980705,261.303385,880.757812,98.025
1701, 09:25:58,41.971039,261.460464,880.575284,98.025
1702, 09:25:58,41.983231,261.576586,881.090199,98.025
1703, 09:25:58,41.968198,261.691998,881.62642,98.025
1704, 09:25:58,42.011877,261.882694,882.060369,98.025
1705, 09:25:58,41.964923,262.196851,881.732244,98.025
1706, 09:25:58,41.964962,262.296402,882.454545,98.025
1707, 09:25:58,42.002683,262.482481,882.818182,98.025
1708, 09:25:58,41.994792,262.670455,883.758523,98.025
1709, 09:25:58,41.992188,262.867661,883.955966,98.025
1710, 09:25:59,41.909288,262.82919,884.15696,98.05
1711, 09:25:59,41.674006,262.20715,880.759943,98.05
1712, 09:25:59,41.612137,261.697206,879.143466,98.05
1713, 09:25:59,41.635653,261.386127,878.31392,98.05
1714, 09:25:59,41.720013,261.265152,879.082386,98.05
1715, 09:25:59,41.787958,261.225616,878.62358,98.05
1716, 09:25:59,41.804372,261.177794,878.487216,98.05
1717, 09:25:59,41.814789,261.1134,878.549716,98.05
1718, 09:25:59,41.85026,261.093868,879.338778,98.05
1719, 09:25:59,41.851128,261.088897,879.689631,98.05
1720, 09:25:59,41.851562,261.019176,879.390625,98.05
1721, 09:25:59,41.846236,260.979522,878.817472,98.05
1722, 09:25:59,41.839607,260.849787,878.857244,98.05
1723, 09:25:59,41.857086,260.831203,878.359375,98.05
1724, 09:25:59,41.903685,260.97384,879.243608,98.05
1725, 09:25:59,41.930792,261.044271,879.103693,98.05
1726, 09:25:59,41.950679,261.140388,879.958807,98.05
1727, 09:25:59,41.97092,261.28776,880.112926,98.05
1728, 09:25:59,41.989623,261.488281,881.287642,98.05
1729, 09:25:59,41.995502,261.64465,881.714489,98.05
1730, 09:25:59,41.977904,261.684659,881.576705,98.05
1731, 09:25:59,41.97605,261.812618,881.631392,98.05
1732, 09:25:59,41.987334,261.881984,882.084517,98.05
1733, 09:25:59,41.985756,262.02545,882.149858,98.05
1734, 09:25:59,41.988794,262.15483,882.886364,98.05
1735, 09:25:59,41.993371,262.371686,883.403409,98.05
1736, 09:25:59,41.947404,262.544863,883.050426,98.05
1737, 09:25:59,41.959754,262.669508,883.542614,98.05
1738, 09:25:59,41.982481,262.85322,884.090909,98.05
1739, 09:25:59,41.985204,263.045099,884.253551,98.05
1740, 09:26:00,41.881984,262.929569,883.424006,98.05
1741, 09:26:00,41.692708,262.350379,880.400568,98.05
1742, 09:26:00,41.643111,261.825166,879.62429,98.05
1743, 09:26:00,41.658065,261.65554,879.075284,98.05
1744, 09:26:00,41.76089,261.580966,879.340909,98.05
1745, 09:26:00,41.804964,261.600497,879.71946,98.05
1746, 09:26:00,41.832899,261.58724,880.304688,98.05
1747, 09:26:00,41.841896,261.571141,880.549006,98.05
1748, 09:26:00,41.871252,261.593868,880.571733,98.05
1749, 09:26:00,41.863755,261.585109,880.266335,98.05
1750, 09:26:00,41.857994,261.537997,880.043324,98.05
1751, 09:26:00,41.874092,261.461293,880.262074,98.05
1752, 09:26:00,41.887626,261.456439,879.928977,98.05
1753, 09:26:00,41.909801,261.482244,880.183239,98.05
1754, 09:26:00,41.947601,261.661932,881.5,98.05
1755, 09:26:00,41.971788,261.748224,881.341619,98.05
1756, 09:26:00,41.974195,261.856771,881.495739,98.05
1757, 09:26:00,41.981968,261.916075,881.627131,98.05
1758, 09:26:00,42.003393,262.095407,881.973011,98.05
1759, 09:26:00,41.99349,262.251302,882.536222,98.05
1760, 09:26:00,41.998382,262.343158,883.058949,98.05
1761, 09:26:00,42.002723,262.46366,883.458097,98.05
1762, 09:26:00,42.016454,262.624171,883.460938,98.05
1763, 09:26:00,42.01523,262.754498,883.74858,98.05
1764, 09:26:00,42.004419,262.92803,884.627841,98.05
1765, 09:26:00,42.00801,263.059541,884.695312,98.05
1766, 09:26:00,42.021938,263.255682,884.994318,98.05
1767, 09:26:00,41.972538,263.446496,883.960227,98.05
1768, 09:26:00,41.972617,263.527225,884.990057,98.05
1769, 09:26:00,41.816801,263.265743,883.477983,98.05
1770, 09:26:01,41.633168,262.495147,880.726562,98.075
1771, 09:26:01,41.617543,262.096946,879.368608,98.075
1772, 09:26:01,41.680082,261.934659,880.048295,98.075
1773, 09:26:01,41.757694,261.840791,880.073153,98.075
1774, 09:26:01,41.808081,261.762784,880.448864,98.075
1775, 09:26:01,41.811948,261.72893,880.524148,98.075
1776, 09:26:01,41.848564,261.614347,880.941761,98.075
1777, 09:26:01,41.868805,261.597893,880.206676,98.075
1778, 09:26:01,41.877762,261.563684,880.649148,98.075
1779, 09:26:01,41.882852,261.459635,879.982244,98.075
1780, 09:26:01,41.900726,261.353693,879.789773,98.075
1781, 09:26:01,41.932371,261.359612,880.240057,98.075
1782, 09:26:01,41.944326,261.330137,880.585938,98.075
1783, 09:26:01,41.969105,261.491122,880.53196,98.075
1784, 09:26:01,41.995778,261.586293,881.068892,98.075
1785, 09:26:01,42.012271,261.669389,881.31179,98.075
1786, 09:26:01,42.030342,261.778527,881.685369,98.075
1787, 09:26:01,42.023359,261.916667,881.721591,98.075
1788, 09:26:01,42.034998,262.059067,882.695312,98.075
1789, 09:26:01,42.041982,262.116004,882.511364,98.075
1790, 09:26:01,42.048848,262.263494,882.396307,98.075
1791, 09:26:01,42.045257,262.300071,882.68679,98.075
1792, 09:26:01,42.027817,262.551255,883.415483,98.075
1793, 09:26:01,42.033381,262.707623,884.205966,98.075
1794, 09:26:01,42.035866,262.852865,884.549006,98.075
1795, 09:26:01,42.03926,263.029238,884.394176,98.075
1796, 09:26:01,42.045415,263.186908,885.325994,98.075
1797, 09:26:01,42.050189,263.34517,885.207386,98.075
1798, 09:26:01,42.020005,263.533973,885.831676,98.075
1799, 09:26:01,41.942472,263.437263,885.191761,98.075
1800, 09:26:02,41.721394,262.813329,882.147017,98.075
1801, 09:26:02,41.630406,262.170099,879.361506,98.075
1802, 09:26:02,41.678228,261.892637,879.773438,98.075
1803, 09:26:02,41.776555,261.808357,879.574574,98.075
1804, 09:26:02,41.846117,261.691761,880.264205,98.075
1805, 09:26:02,41.8634,261.565104,879.984375,98.075
1806, 09:26:02,41.863873,261.352509,879.882102,98.075
1807, 09:26:02,41.909683,261.250829,879.601562,98.075
1808, 09:26:02,41.938368,261.1759,879.40767,98.075
1809, 09:26:02,41.970999,261.136955,878.824574,98.075
1810, 09:26:02,41.972104,261.056463,880.321733,98.075
1811, 09:26:02,41.968711,261.00509,879.945312,98.075
1812, 09:26:02,41.997751,260.966264,879.959517,98.075
1813, 09:26:02,42.033302,260.985322,879.636364,98.075
1814, 09:26:02,42.070707,261.059659,880.363636,98.075
1815, 09:26:02,42.091027,261.141927,881.12429,98.075
1816, 09:26:02,42.109296,261.267282,881.393466,98.075
1817, 09:26:02,42.124408,261.341974,881.117188,98.075
1818, 09:26:02,42.134706,261.531013,881.390625,98.075
1819, 09:26:02,42.16718,261.699455,882.398438,98.075
1820, 09:26:02,42.145833,261.76089,882.193182,98.075
1821, 09:26:02,42.145636,261.872514,882.40554,98.075
1822, 09:26:02,42.152857,261.945312,882.268466,98.075
1823, 09:26:02,42.149148,262.063447,882.321023,98.075
1824, 09:26:02,42.174598,262.256274,883.710938,98.075
1825, 09:26:02,42.17081,262.393584,883.304688,98.075
1826, 09:26:02,42.183909,262.561198,883.799006,98.075
1827, 09:26:02,42.161537,262.795691,884.805398,98.075
1828, 09:26:02,42.182923,262.956913,885.306818,98.075
1829, 09:26:02,42.153409,263.215436,884.738636,98.075
1830, 09:26:03,42.148793,263.317116,884.87429,98.1
1831, 09:26:03,41.914773,262.829072,882.269886,98.1
1832, 09:26:03,41.74929,262.197206,880.992898,98.1
1833, 09:26:03,41.75801,261.814276,879.760653,98.1
1834, 09:26:03,41.850024,261.642401,880.067472,98.1
1835, 09:26:03,41.93825,261.495147,880.291903,98.1
1836, 09:26:03,41.964094,261.410748,880.612216,98.1
1837, 09:26:03,41.974392,261.269768,880.237926,98.1
1838, 09:26:03,41.988281,261.128196,880.473722,98.1
1839, 09:26:03,42.022925,261.064512,879.054688,98.1
1840, 09:26:03,42.036419,261.051491,879.575994,98.1
1841, 09:26:03,42.047546,261.001539,879.171165,98.1
1842, 09:26:03,42.077809,260.891098,879.474432,98.1
1843, 09:26:03,42.08791,260.883996,879.710227,98.1
1844, 09:26:03,42.129261,260.920928,880.011364,98.1
1845, 09:26:03,42.151791,260.970526,880.115767,98.1
1846, 09:26:03,42.156289,261.080137,881.335938,98.1
1847, 09:26:03,42.178346,261.20786,881.184659,98.1
1848, 09:26:03,42.205808,261.292614,881.610795,98.1
1849, 09:26:03,42.202928,261.41276,881.414062,98.1
1850, 09:26:03,42.211963,261.515625,881.667614,98.1
1851, 09:26:03,42.201586,261.646899,881.611506,98.1
1852, 09:26:03,42.210227,261.75947,882.590909,98.1
1853, 09:26:03,42.222735,261.8808,883.09446,98.1
1854, 09:26:03,42.233862,262.057647,884.101562,98.1
1855, 09:26:03,42.236111,262.172348,883.863636,98.1
1856, 09:26:03,42.243766,262.299479,884.296875,98.1
1857, 09:26:03,42.240885,262.457505,884.264915,98.1
1858, 09:26:03,42.215041,262.674006,884.816761,98.1
1859, 09:26:03,42.233783,262.857599,884.776278,98.1
1860, 09:26:04,42.226957,263.089962,885.178977,98.1
1861, 09:26:04,42.183988,263.142874,884.894176,98.1
1862, 09:26:04,41.973169,262.614583,882.75,98.1
1863, 09:26:04,41.847459,262.120975,880.268466,98.1
1864, 09:26:04,41.886403,261.855705,880.597301,98.1
1865, 09:26:04,41.951349,261.704901,880.666903,98.1
1866, 09:26:04,42.001854,261.667022,881.272017,98.1
1867, 09:26:04,42.044665,261.629261,881.176136,98.1
1868, 09:26:04,42.073706,261.62358,881.855114,98.1
1869, 09:26:04,42.090672,261.639915,881.583807,98.1
1870, 09:26:04,42.110914,261.634825,881.470881,98.1
1871, 09:26:04,42.120423,261.595644,880.741477,98.1
1872, 09:26:04,42.111427,261.524148,881.903409,98.1
1873, 09:26:04,42.123777,261.453717,881.085938,98.1
1874, 09:26:04,42.147096,261.465436,881.332386,98.1
1875, 09:26:04,42.161774,261.492424,881.323864,98.1
1876, 09:26:04,42.201586,261.586766,882.066051,98.1
1877, 09:26:04,42.195668,261.705848,882.141335,98.1
1878, 09:26:04,42.219223,261.813447,882.752841,98.1
1879, 09:26:04,42.235006,261.963542,882.596591,98.1
1880, 09:26:04,42.256708,262.098248,883.862216,98.1
1881, 09:26:04,42.245462,262.178622,883.083097,98.1
1882, 09:26:04,42.25363,262.35322,884.068182,98.1
1883, 09:26:04,42.246015,262.443063,884.104403,98.1
1884, 09:26:04,42.227628,262.553149,884.472301,98.1
1885, 09:26:04,42.229561,262.647491,884.59233,98.1
1886, 09:26:04,42.274621,262.956913,885.642045,98.1
1887, 09:26:04,42.245541,263.0567,885.450994,98.1
1888, 09:26:04,42.265941,263.272727,887.051136,98.1
1889, 09:26:04,42.274621,263.419981,886.727273,98.1
1890, 09:26:05,42.255761,263.592093,887.319602,98.15
1891, 09:26:05,42.072167,263.447088,884.62571,98.15
1892, 09:26:05,41.902146,262.767992,882.193182,98.15
1893, 09:26:05,41.85902,262.387666,881.34304,98.15
1894, 09:26:05,41.953717,262.210582,882.107244,98.15
1895, 09:26:05,42.009075,262.139915,881.776989,98.15
1896, 09:26:05,42.056147,262.091264,882.144176,98.15
1897, 09:26:05,42.080216,261.945194,881.912642,98.15
1898, 09:26:05,42.112887,261.907315,882.452415,98.15
1899, 09:26:05,42.150292,261.951823,882.421165,98.15
1900, 09:26:05,42.139915,261.932528,882.475852,98.15
1901, 09:26:05,42.134312,261.829545,881.982955,98.15
1902, 09:26:05,42.150884,261.768466,882.326705,98.15
1903, 09:26:05,42.145044,261.725852,881.528409,98.15
1904, 09:26:05,42.181739,261.736032,882.205966,98.15
1905, 09:26:05,42.211687,261.830611,882.216619,98.15
1906, 09:26:05,42.242977,261.920691,882.987216,98.15
1907, 09:26:05,42.269018,262.053741,883.149148,98.15
1908, 09:26:05,42.274069,262.201468,883.930398,98.15
1909, 09:26:05,42.276673,262.311553,884.136364,98.15
1910, 09:26:05,42.278527,262.390507,884.209517,98.15
1911, 09:26:05,42.27908,262.479285,884.247869,98.15
1912, 09:26:05,42.294902,262.610085,884.958807,98.15
1913, 09:26:05,42.280855,262.783381,884.697443,98.15
1914, 09:26:05,42.285117,262.895123,885.166193,98.15
1915, 09:26:05,42.306108,263.108665,885.52983,98.15
1916, 09:26:05,42.297585,263.301373,886.393466,98.15
1917, 09:26:05,42.314552,263.47017,886.451705,98.15
1918, 09:26:05,42.28922,263.63518,887.524148,98.15
1919, 09:26:05,42.31617,263.89169,887.560369,98.15
1920, 09:26:06,42.326507,264.006037,888.294744,98.15
1921, 09:26:06,42.285077,264.118963,887.827415,98.15
1922, 09:26:06,41.981258,263.651634,884.818892,98.15
1923, 09:26:06,41.84154,262.926136,882.076705,98.15
1924, 09:26:06,41.87354,262.584635,882.294744,98.15
1925, 09:26:06,41.959714,262.408499,882.71804,98.15
1926, 09:26:06,42.0131,262.330966,882.894886,98.15
1927, 09:26:06,42.064118,262.240649,882.264915,98.15
1928, 09:26:06,42.069287,262.03125,882.321023,98.15
1929, 09:26:06,42.097735,261.927202,882.404119,98.15
1930, 09:26:06,42.145991,261.866951,881.920455,98.15
1931, 09:26:06,42.176413,261.791075,881.473722,98.15
1932, 09:26:06,42.175189,261.734848,882.653409,98.15
1933, 09:26:06,42.169981,261.637311,881.789773,98.15
1934, 09:26:06,42.197917,261.629735,882.207386,98.15
1935, 09:26:06,42.244713,261.724669,882.87358,98.15
1936, 09:26:06,42.256984,261.75438,883.401278,98.15
1937, 09:26:06,42.300071,261.886009,882.867188,98.15
1938, 09:26:06,42.321575,261.975616,883.910511,98.15
1939, 09:26:06,42.323035,262.082268,884.09304,98.15
1940, 09:26:06,42.327296,262.173651,883.306108,98.15
1941, 09:26:06,42.340554,262.283973,884.198153,98.15
1942, 09:26:06,42.353614,262.42732,884.691761,98.15
1943, 09:26:06,42.330019,262.46733,884.946023,98.15
1944, 09:26:06,42.344223,262.643939,885.051136,98.15
1945, 09:26:06,42.378946,262.852273,885.357955,98.15
1946, 09:26:06,42.380524,263.017519,885.693182,98.15
1947, 09:26:06,42.377565,263.124171,885.804688,98.15
1948, 09:26:06,42.367109,263.302557,887.400568,98.15
1949, 09:26:06,42.374329,263.46295,887.036222,98.15
1950, 09:26:07,42.366004,263.66572,887.778409,98.15
1951, 09:26:07,42.378512,263.843395,888.088778,98.15
1952, 09:26:07,42.394847,263.999882,888.544744,98.15
1953, 09:26:07,42.320194,264.234257,888.06179,98.15
1954, 09:26:07,42.131076,263.773438,885.788352,98.15
1955, 09:26:07,41.954309,263.100616,883.00142,98.15
1956, 09:26:07,41.934186,262.739583,883.267045,98.15
1957, 09:26:07,42.023398,262.595289,883.571733,98.15
1958, 09:26:07,42.096946,262.490175,883.801847,98.15
1959, 09:26:07,42.120739,262.42661,883.971591,98.15
1960, 09:26:07,42.131944,262.208807,882.974432,98.15
1961, 09:26:07,42.166075,262.08724,882.358665,98.15
1962, 09:26:07,42.218513,262.129025,883.132102,98.15
1963, 09:26:07,42.227667,262.014915,882.271307,98.15
1964, 09:26:07,42.237966,261.971473,883.456676,98.15
1965, 09:26:07,42.230271,261.934659,882.534091,98.15
1966, 09:26:07,42.260101,261.880208,882.454545,98.15
1967, 09:26:07,42.29139,261.903054,882.710938,98.15
1968, 09:26:07,42.309146,261.954427,883.450994,98.15
1969, 09:26:07,42.334044,262.025331,884.046875,98.15
1970, 09:26:07,42.356574,262.159209,884.338778,98.15
1971, 09:26:07,42.355508,262.198627,883.578125,98.15
1972, 09:26:07,42.378196,262.300308,883.727983,98.15
1973, 09:26:07,42.386995,262.430398,883.855114,98.15
1974, 09:26:07,42.364899,262.505682,884.75,98.15
1975, 09:26:07,42.377328,262.647135,884.31179,98.15
1976, 09:26:07,42.411971,262.870857,885.762074,98.15
1977, 09:26:07,42.399779,263.012311,885.539773,98.15
1978, 09:26:07,42.400134,263.148793,885.762074,98.15
1979, 09:26:07,42.398872,263.30599,886.142756,98.15
1980, 09:26:08,42.397688,263.46437,887.246449,98.15
1981, 09:26:08,42.414378,263.681581,887.955966,98.15
1982, 09:26:08,42.408657,263.798414,888.290483,98.15
1983, 09:26:08,42.398438,263.950521,887.77983,98.15
1984, 09:26:08,42.357836,264.176255,888.872869,98.15
1985, 09:26:08,42.342842,264.32777,888.154119,98.15
1986, 09:26:08,42.19622,264.036103,887.139915,98.15
1987, 09:26:08,41.994318,263.362689,883.923295,98.15
1988, 09:26:08,41.981258,262.958925,883.642756,98.15
1989, 09:26:08,42.045691,262.852036,883.49858,98.15
1990, 09:26:08,42.127446,262.876657,884.609375,98.15
1991, 09:26:08,42.172664,262.843277,884.161932,98.15
1992, 09:26:08,42.187895,262.832623,884.65767,98.15
1993, 09:26:08,42.200758,262.848011,884.610795,98.15
1994, 09:26:08,42.238242,262.748816,884.617898,98.15
1995, 09:26:08,42.237926,262.718513,883.609375,98.15
1996, 09:26:08,42.225458,262.669271,884.46733,98.15
1997, 09:26:08,42.25142,262.705019,883.849432,98.15
1998, 09:26:08,42.260496,262.658381,884.544034,98.15
1999, 09:26:08,42.29577,262.73911,884.980114,98.15
2000, 09:26:08,42.321259,262.831676,885.370739,98.15
2001, 09:26:08,42.341304,262.946733,885.677557,98.15
2002, 09:26:08,42.359967,262.996567,885.794744,98.15
2003, 09:26:08,42.356376,263.133523,886.161932,98.15
2004, 09:26:08,42.351957,263.22822,886.448864,98.15
2005, 09:26:08,42.358033,263.377131,886.478693,98.15
2006, 09:26:08,42.349984,263.479403,886.916193,98.15
2007, 09:26:08,42.351641,263.617898,886.59375,98.15
2008, 09:26:08,42.375631,263.741477,887.784091,98.15
2009, 09:26:08,42.381116,263.867306,887.789062,98.15
2010, 09:26:09,42.381905,263.943063,888.254972,98.2
2011, 09:26:09,42.394452,264.154474,888.84446,98.2
2012, 09:26:09,42.387547,264.262547,889.223011,98.2
2013, 09:26:09,42.390862,264.417377,889.052557,98.2
2014, 09:26:09,42.412445,264.64169,890.139915,98.2
2015, 09:26:09,42.351523,264.84955,889.120028,98.2
2016, 09:26:09,42.32264,264.816406,889.463778,98.2
2017, 09:26:09,42.126302,264.414418,886.921165,98.2
2018, 09:26:09,41.988715,263.888494,885.129261,98.2
2019, 09:26:09,42.006708,263.641335,884.694602,98.2
2020, 09:26:09,42.081558,263.60831,885.169744,98.2
2021, 09:26:09,42.16063,263.58795,885.942472,98.2
2022, 09:26:09,42.179845,263.580729,885.830966,98.2
2023, 09:26:09,42.187895,263.539062,885.68608,98.2
2024, 09:26:09,42.22968,263.593395,886.31321,98.2
2025, 09:26:09,42.227865,263.539654,886.334517,98.2
2026, 09:26:09,42.218908,263.506155,886.215909,98.2
2027, 09:26:09,42.213029,263.459635,885.712358,98.2
2028, 09:26:09,42.225458,263.483191,885.950284,98.2
2029, 09:26:09,42.248501,263.475142,885.62642,98.2
2030, 09:26:09,42.281092,263.530303,886.059659,98.2
2031, 09:26:09,42.320904,263.61044,886.975142,98.2
2032, 09:26:09,42.321851,263.699929,887.443892,98.2
2033, 09:26:09,42.326231,263.763258,887.272727,98.2
2034, 09:26:09,42.333846,263.92152,887.111506,98.2
2035, 09:26:09,42.338778,264.067945,887.660511,98.2
2036, 09:26:09,42.347538,264.178504,888.778409,98.2
2037, 09:26:09,42.343868,264.321378,888.794744,98.2
2038, 09:26:09,42.34959,264.397254,888.835227,98.2
2039, 09:26:09,42.344934,264.565104,889.100852,98.2
2040, 09:26:10,42.355745,264.666667,889.889205,98.2
2041, 09:26:10,42.340791,264.793205,889.347301,98.2
2042, 09:26:10,42.349747,264.951705,890.335227,98.2
2043, 09:26:10,42.350339,265.110677,890.882812,98.2
2044, 09:26:10,42.349077,265.269768,890.985085,98.2
2045, 09:26:10,42.334951,265.386955,891.009233,98.2
2046, 09:26:10,42.085622,265.141809,888.890625,98.2
2047, 09:26:10,41.96366,264.485204,885.868608,98.2
2048, 09:26:10,41.945944,264.061316,884.615057,98.2
2049, 09:26:10,42.001815,263.976562,885.396307,98.2
2050, 09:26:10,42.060054,263.927794,886.231534,98.2
2051, 09:26:10,42.103654,263.860677,885.919744,98.2
2052, 09:26:10,42.107284,263.719579,886.181108,98.2
2053, 09:26:10,42.144886,263.672348,885.90625,98.2
2054, 09:26:10,42.178464,263.543442,886.476562,98.2
2055, 09:26:10,42.198509,263.513613,885.306108,98.2
2056, 09:26:10,42.202849,263.419152,886.540483,98.2
2057, 09:26:10,42.216067,263.347064,885.8125,98.2
2058, 09:26:10,42.236979,263.357718,886.035511,98.2
2059, 09:26:10,42.258523,263.333333,885.465909,98.2
2060, 09:26:10,42.29506,263.435843,887.007102,98.2
2061, 09:26:10,42.294744,263.518703,886.893466,98.2
2062, 09:26:10,42.336135,263.654238,886.618608,98.2
2063, 09:26:10,42.343079,263.761719,887.246449,98.2
2064, 09:26:10,42.344263,263.818774,887.639915,98.2
2065, 09:26:10,42.336332,263.932765,888.048295,98.2
2066, 09:26:10,42.348327,264.016098,888.241477,98.2
2067, 09:26:10,42.366122,264.159446,888.047585,98.2
2068, 09:26:10,42.362374,264.28125,888.727273,98.2
2069, 09:26:10,42.367109,264.425189,889.201705,98.2
2070, 09:26:11,42.356889,264.539891,889.381392,98.225
2071, 09:26:11,42.362571,264.674834,889.242188,98.225
2072, 09:26:11,42.357836,264.842921,890.040483,98.225
2073, 09:26:11,42.369042,264.978812,890.321733,98.225
2074, 09:26:11,42.391335,265.168324,890.930398,98.225
2075, 09:26:11,42.379695,265.28776,890.959517,98.225
2076, 09:26:11,42.332426,265.400213,891.310369,98.225
2077, 09:26:11,42.0305,264.908736,887.085938,98.225
2078, 09:26:11,41.902541,264.232244,885.507102,98.225
2079, 09:26:11,41.948153,263.9491,885.40767,98.225
2080, 09:26:11,42.011009,263.836529,886.172585,98.225
2081, 09:26:11,42.07919,263.755563,885.956676,98.225
2082, 09:26:11,42.117622,263.590554,885.764915,98.225
2083, 09:26:11,42.114702,263.415128,884.760653,98.225
2084, 09:26:11,42.145241,263.352391,885.080256,98.225
2085, 09:26:11,42.164339,263.271425,885.585938,98.225
2086, 09:26:11,42.185567,263.263613,885.235085,98.225
2087, 09:26:11,42.200718,263.139086,884.78054,98.225
2088, 09:26:11,42.215593,263.109848,885.079545,98.225
2089, 09:26:11,42.23911,263.10464,885.267045,98.225
2090, 09:26:11,42.255958,263.095999,885.618608,98.225
2091, 09:26:11,42.288865,263.1308,886.185369,98.225
2092, 09:26:11,42.313171,263.280421,886.387074,98.225
2093, 09:26:11,42.327849,263.358073,885.790483,98.225
2094, 09:26:11,42.35756,263.507339,887.180398,98.225
2095, 09:26:11,42.335622,263.571733,886.552557,98.225
2096, 09:26:11,42.347538,263.625473,886.965909,98.225
2097, 09:26:11,42.357994,263.76527,886.912642,98.225
2098, 09:26:11,42.347656,263.877723,887.791903,98.225
2099, 09:26:11,42.354167,263.992898,887.957386,98.225
2100, 09:26:12,42.388455,264.146899,888.966619,98.225
2101, 09:26:12,42.380603,264.304214,888.572443,98.225
2102, 09:26:12,42.377683,264.455966,888.551136,98.225
2103, 09:26:12,42.382378,264.663707,889.524858,98.225
2104, 09:26:12,42.388494,264.862926,890.65767,98.225
2105, 09:26:12,42.379616,265.048887,890.477983,98.225
2106, 09:26:12,42.386679,265.212121,890.480114,98.225
2107, 09:26:12,42.396741,265.416075,890.638494,98.225
2108, 09:26:12,42.311474,265.63518,891.191761,98.225
2109, 09:26:12,42.101168,265.226326,889.088068,98.225
2110, 09:26:12,41.929293,264.669034,886.298295,98.225
2111, 09:26:12,41.917061,264.409328,886.339489,98.225
2112, 09:26:12,41.971512,264.358665,886.671875,98.225
2113, 09:26:12,42.02111,264.363045,886.959517,98.225
2114, 09:26:12,42.04794,264.326113,887.132812,98.225
2115, 09:26:12,42.054175,264.279948,886.290483,98.225
2116, 09:26:12,42.071378,264.269531,887.463778,98.225
2117, 09:26:12,42.083531,264.230232,886.807528,98.225
2118, 09:26:12,42.087871,264.187382,887.141335,98.225
2119, 09:26:12,42.088897,264.144058,886.543324,98.225
2120, 09:26:12,42.09375,264.151989,886.465909,98.225
2121, 09:26:12,42.118292,264.195786,886.90767,98.225
2122, 09:26:12,42.146228,264.273438,887.555398,98.225
2123, 09:26:12,42.181463,264.417969,887.53054,98.225
2124, 09:26:12,42.205887,264.545691,888.31392,98.225
2125, 09:26:12,42.197759,264.589489,888.559659,98.225
2126, 09:26:12,42.209793,264.698509,889.310369,98.225
2127, 09:26:12,42.208531,264.853812,888.997869,98.225
2128, 09:26:12,42.212753,264.943655,889.380682,98.225
2129, 09:26:12,42.213147,265.055161,888.796875,98.225
2130, 09:26:13,42.219381,265.20928,889.846591,97.975
2131, 09:26:13,42.21733,265.397727,889.744318,97.975
2132, 09:26:13,42.213778,265.513968,890.56392,97.975
2133, 09:26:13,42.219934,265.658854,890.762784,97.975
2134, 09:26:13,42.219421,265.813092,890.628551,97.975
2135, 09:26:13,42.209241,266.02545,891.385653,97.975
2136, 09:26:13,42.217882,266.165483,891.955966,97.975
2137, 09:26:13,42.237926,266.345407,892.083807,97.975
2138, 09:26:13,42.237098,266.542732,893.529119,97.975
2139, 09:26:13,42.184225,266.67294,891.841619,97.975
2140, 09:26:13,42.078243,266.546283,891.331676,97.975
2141, 09:26:13,41.83724,266.088897,888.357244,97.975
2142, 09:26:13,41.797546,265.791785,888.199574,97.975
2143, 09:26:13,41.825797,265.736387,888.543324,97.975
2144, 09:26:13,41.898516,265.785038,888.892045,97.975
2145, 09:26:13,41.921638,265.807528,888.896307,97.975
2146, 09:26:13,41.934896,265.835938,889.140625,97.975
2147, 09:26:13,41.959675,265.852036,889.700284,97.975
2148, 09:26:13,41.976247,265.852983,890.103693,97.975
2149, 09:26:13,41.968119,265.905303,889.704545,97.975
2150, 09:26:13,41.963029,265.903291,890.65554,97.975
2151, 09:26:13,41.963936,265.870502,890.166193,97.975
2152, 09:26:13,41.982994,265.878906,890.100142,97.975
2153, 09:26:13,42.00221,265.956439,890.184659,97.975
2154, 09:26:13,42.024661,266.083452,890.81321,97.975
2155, 09:26:13,42.048059,266.245975,890.669034,97.975
2156, 09:26:13,42.067116,266.385535,891.924006,97.975
2157, 09:26:13,42.049874,266.474905,891.383523,97.975
2158, 09:26:13,42.036419,266.571378,892.15554,97.975
2159, 09:26:13,42.03705,266.715317,892.462358,97.975
2160, 09:26:14,42.055161,266.834517,892.274148,97.975
2161, 09:26:14,42.048374,266.944839,893.169034,97.975
2162, 09:26:14,42.060843,267.077415,893.205966,97.975
2163, 09:26:14,42.041785,267.214844,893.595881,97.975
2164, 09:26:14,42.058515,267.41276,893.99929,97.975
2165, 09:26:14,42.0378,267.466146,893.509943,97.975
2166, 09:26:14,42.056503,267.631629,894.409091,97.975
2167, 09:26:14,42.04435,267.773201,894.505682,97.975
2168, 09:26:14,42.053583,267.896544,895.703125,97.975
2169, 09:26:14,42.064591,268.083925,894.81321,97.975
2170, 09:26:14,41.96366,268.176491,894.644176,97.975
2171, 09:26:14,41.755208,267.710227,892.528409,97.975
2172, 09:26:14,41.610322,267.220644,890.602273,97.975
2173, 09:26:14,41.589489,267.044034,889.659091,97.975
2174, 09:26:14,41.639639,266.969105,890.226562,97.975
2175, 09:26:14,41.693774,267.018348,890.661222,97.975
2176, 09:26:14,41.72384,266.977391,891.128551,97.975
2177, 09:26:14,41.738557,266.909801,890.740057,97.975
2178, 09:26:14,41.748658,266.814631,890.961648,97.975
2179, 09:26:14,41.762192,266.780895,889.841619,97.975
2180, 09:26:14,41.787129,266.813092,891.068892,97.975
2181, 09:26:14,41.782355,266.72017,891.042614,97.975
2182, 09:26:14,41.787879,266.683712,890.636364,97.975
2183, 09:26:14,41.813763,266.72017,890.076705,97.975
2184, 09:26:14,41.854759,266.750355,891.414062,97.975
2185, 09:26:14,41.864347,266.837358,891.18608,97.975
2186, 09:26:14,41.87721,266.89678,891.698864,97.975
2187, 09:26:14,41.901673,267.007102,892.082386,97.975
2188, 09:26:14,41.910945,267.181226,892.629972,97.975
2189, 09:26:14,41.912247,267.285038,892.744318,97.975
2190, 09:26:15,41.920376,267.317472,892.865057,97.975
2191, 09:26:15,41.927478,267.435843,892.975852,97.975
2192, 09:26:15,41.937303,267.549598,893.794744,97.975
2193, 09:26:15,41.943458,267.66134,893.368608,97.975
2194, 09:26:15,41.931029,267.77036,894.139205,97.975
2195, 09:26:15,41.942551,267.895833,894.417614,97.975
2196, 09:26:15,41.943774,267.984257,894.760653,97.975
2197, 09:26:15,41.955532,268.118963,894.517756,97.975
2198, 09:26:15,41.981455,268.325994,895.455966,97.975
2199, 09:26:15,41.978693,268.445076,895.684659,97.975
2200, 09:26:15,41.988005,268.629261,896.0,97.975
2201, 09:26:15,41.951389,268.848958,896.153409,97.975
2202, 09:26:15,41.939473,268.9259,896.27983,97.975
2203, 09:26:15,41.721985,268.546638,893.964489,97.975
2204, 09:26:15,41.517677,267.975379,891.318182,97.975
2205, 09:26:15,41.512587,267.731889,891.323153,97.975
2206, 09:26:15,41.551097,267.677438,891.945312,97.975
2207, 09:26:15,41.611348,267.639915,891.603693,97.975
2208, 09:26:15,41.651357,267.613636,891.875,97.975
2209, 09:26:15,41.670099,267.520715,892.132812,97.975
2210, 09:26:15,41.693063,267.455137,892.497869,97.975
2211, 09:26:15,41.707623,267.406487,891.651989,97.975
2212, 09:26:15,41.706242,267.340791,892.004972,97.975
2213, 09:26:15,41.718711,267.318537,891.814631,97.975
2214, 09:26:15,41.728772,267.246449,891.850852,97.975
2215, 09:26:15,41.732521,267.277107,891.887074,97.975
2216, 09:26:15,41.776476,267.34884,892.158381,97.975
2217, 09:26:15,41.801294,267.398674,892.056818,97.975
2218, 09:26:15,41.8314,267.470526,892.314631,97.975
2219, 09:26:15,41.861782,267.61849,892.960938,97.975
2220, 09:26:16,41.867266,267.658617,893.732955,97.975
2221, 09:26:16,41.878946,267.800189,893.650568,97.975
2222, 09:26:16,41.887824,267.875592,894.060369,97.975
2223, 09:26:16,41.885969,268.002131,894.177557,97.975
2224, 09:26:16,41.884825,268.086766,894.580256,97.975
2225, 09:26:16,41.880682,268.205019,894.323864,97.975
2226, 09:26:16,41.873382,268.284446,895.141335,97.975
2227, 09:26:16,41.879459,268.423414,894.290483,97.975
2228, 09:26:16,41.894137,268.58724,895.639915,97.975
2229, 09:26:16,41.889954,268.70206,895.286222,97.975
2230, 09:26:16,41.891138,268.859967,896.355824,97.975
2231, 09:26:16,41.90988,269.004261,897.289773,97.975
2232, 09:26:16,41.887468,269.299242,896.590909,97.975
2233, 09:26:16,41.922664,269.406723,897.551136,97.975
2234, 09:26:16,41.905185,269.51669,897.926847,97.975
2235, 09:26:16,41.76965,269.409801,896.348011,97.975
2236, 09:26:16,41.50651,268.857126,894.270597,97.975
2237, 09:26:16,41.406645,268.473722,892.566761,97.975
2238, 09:26:16,41.457031,268.412287,892.848722,97.975
2239, 09:26:16,41.533144,268.403883,893.340909,97.975
2240, 09:26:16,41.606692,268.423295,893.872159,97.975
2241, 09:26:16,41.618411,268.406368,893.943892,97.975
2242, 09:26:16,41.615412,268.367069,893.503551,97.975
2243, 09:26:16,41.630208,268.34517,893.21875,97.975
2244, 09:26:16,41.626618,268.403054,893.693892,97.975
2245, 09:26:16,41.622277,268.367306,893.320312,97.975
2246, 09:26:16,41.61703,268.322206,893.850852,97.975
2247, 09:26:16,41.625631,268.27983,893.0,97.975
