frame_index,timestamp,R,G,B,average_SpO2
0, 15:13:23,68.918127,156.965554,945.338778,96.375
1, 15:13:23,68.883878,156.987334,944.767756,96.375
2, 15:13:23,69.126105,157.505682,948.928977,96.375
3, 15:13:23,69.240451,157.812737,950.478693,96.375
4, 15:13:23,69.286222,157.811316,950.410511,96.375
5, 15:13:23,69.209635,158.036103,949.31321,96.375
6, 15:13:23,69.240136,158.254498,950.711648,96.375
7, 15:13:23,69.329782,158.980824,953.052557,96.375
8, 15:13:23,69.522214,159.539654,955.774858,96.375
9, 15:13:23,69.676807,160.230232,956.662642,96.375
10, 15:13:23,69.786695,160.872869,957.93608,96.375
11, 15:13:23,69.891927,161.497277,960.543324,96.375
12, 15:13:23,69.995384,162.022609,962.09304,96.375
13, 15:13:23,70.116517,162.642637,963.932528,96.375
14, 15:13:23,70.237374,163.28125,965.897727,96.375
15, 15:13:23,70.335859,163.913352,967.883523,96.375
16, 15:13:23,70.47672,164.448627,969.458807,96.375
17, 15:13:23,70.580177,165.092803,971.565341,96.375
18, 15:13:23,70.714923,165.705848,973.064631,96.375
19, 15:13:23,70.806187,166.307292,975.542614,96.375
20, 15:13:23,70.907315,166.908973,976.868608,96.375
21, 15:13:23,71.016572,167.513258,978.551136,96.375
22, 15:13:23,71.145676,168.07197,980.019886,96.375
23, 15:13:23,71.181858,168.323509,980.333097,96.375
24, 15:13:23,70.570707,166.388731,972.110795,96.375
25, 15:13:23,69.724669,162.887074,959.580966,96.375
26, 15:13:23,69.168995,160.242306,952.24929,96.375
27, 15:13:23,69.019926,159.101918,948.858665,96.375
28, 15:13:23,68.876184,158.229877,947.609375,96.375
29, 15:13:23,68.680279,157.29652,944.327415,96.375
30, 15:13:24,68.46291,156.392045,941.417614,96.35
31, 15:13:24,68.204151,155.238873,935.237216,96.35
32, 15:13:24,68.288707,155.541785,936.818892,96.35
33, 15:13:24,68.364426,155.741004,938.113636,96.35
34, 15:13:24,68.363123,155.796283,938.064631,96.35
35, 15:13:24,68.349984,155.843987,937.68608,96.35
36, 15:13:24,68.409485,156.043324,938.259943,96.35
37, 15:13:24,68.509785,156.429451,939.747159,96.35
38, 15:13:24,68.620186,156.978456,941.705966,96.35
39, 15:13:24,68.704506,157.483783,942.075994,96.35
40, 15:13:24,68.869673,158.134588,945.372869,96.35
41, 15:13:24,68.989899,158.733428,946.454545,96.35
42, 15:13:24,69.058436,159.255327,948.446733,96.35
43, 15:13:24,69.159051,159.788234,949.783381,96.35
44, 15:13:24,69.287405,160.266572,951.423295,96.35
45, 15:13:24,69.393821,160.837713,953.057528,96.35
46, 15:13:24,69.513613,161.445194,954.884233,96.35
47, 15:13:24,69.640822,162.091974,956.18821,96.35
48, 15:13:24,69.761285,162.658854,958.223011,96.35
49, 15:13:24,69.87571,163.296165,959.865057,96.35
50, 15:13:24,69.987413,163.875592,961.722301,96.35
51, 15:13:24,70.124803,164.599787,963.450994,96.35
52, 15:13:24,70.25947,165.229167,965.346591,96.35
53, 15:13:24,70.375276,165.812382,967.024858,96.35
54, 15:13:24,70.036656,164.675308,961.943892,96.35
55, 15:13:24,69.287247,161.767992,950.982955,96.35
56, 15:13:24,68.780934,159.227273,942.994318,96.35
57, 15:13:24,68.611979,158.084991,940.245739,96.35
58, 15:13:24,68.572877,157.648082,940.473722,96.35
59, 15:13:24,68.503906,156.972893,937.71804,96.35
60, 15:13:25,68.427083,156.367424,936.386364,96.4
61, 15:13:25,68.443221,156.371804,936.182528,96.4
62, 15:13:25,68.574377,156.740175,938.384233,96.4
63, 15:13:25,68.634864,157.065104,938.78267,96.4
64, 15:13:25,68.639875,157.036577,939.628551,96.4
65, 15:13:25,68.635535,157.02687,939.104403,96.4
66, 15:13:25,68.686908,157.225024,940.370028,96.4
67, 15:13:25,68.806818,157.730587,941.517045,96.4
68, 15:13:25,68.942708,158.270833,943.670455,96.4
69, 15:13:25,69.097972,158.8067,945.695312,96.4
70, 15:13:25,69.180911,159.542732,946.727983,96.4
71, 15:13:25,69.297348,160.028409,948.255682,96.4
72, 15:13:25,69.373382,160.482363,950.283381,96.4
73, 15:13:25,69.439946,160.92732,951.004261,96.4
74, 15:13:25,69.590672,161.623343,953.370739,96.4
75, 15:13:25,69.72092,162.165128,955.220881,96.4
76, 15:13:25,69.867069,162.750829,957.243608,96.4
77, 15:13:25,69.949021,163.329072,957.653409,96.4
78, 15:13:25,70.078756,163.9375,960.613636,96.4
79, 15:13:25,70.225458,164.659801,962.919034,96.4
80, 15:13:25,70.393584,165.351207,965.166903,96.4
81, 15:13:25,70.500355,166.044152,966.426847,96.4
82, 15:13:25,70.235598,165.121094,962.928267,96.4
83, 15:13:25,69.54727,162.507812,952.379261,96.4
84, 15:13:25,69.083333,160.320076,945.255682,96.4
85, 15:13:25,68.9753,159.315104,943.098011,96.4
86, 15:13:25,68.966146,158.997396,942.637784,96.4
87, 15:13:25,68.889599,158.506866,941.620739,96.4
88, 15:13:25,68.795652,157.858073,939.301847,96.4
89, 15:13:25,68.777344,157.765743,939.409801,96.4
90, 15:13:26,68.814789,157.956676,940.325284,96.4
91, 15:13:26,68.88589,158.101326,940.903409,96.4
92, 15:13:26,68.838226,158.069129,940.622159,96.4
93, 15:13:26,68.810488,157.975024,940.352983,96.4
94, 15:13:26,68.838344,158.167495,941.24929,96.4
95, 15:13:26,68.972341,158.696851,942.425426,96.4
96, 15:13:26,69.07848,159.153054,944.480824,96.4
97, 15:13:26,69.151002,159.63009,945.567472,96.4
98, 15:13:26,69.263771,160.116596,947.975142,96.4
99, 15:13:26,69.354759,160.546283,948.459517,96.4
100, 15:13:26,69.42586,161.025687,949.980824,96.4
101, 15:13:26,69.486624,161.429569,951.060369,96.4
102, 15:13:26,69.586174,161.822443,952.261364,96.4
103, 15:13:26,69.665365,162.292969,953.709517,96.4
104, 15:13:26,69.751933,162.775213,955.159801,96.4
105, 15:13:26,69.849747,163.194129,956.230114,96.4
106, 15:13:26,69.943695,163.738755,958.148438,96.4
107, 15:13:26,70.069997,164.194366,960.25142,96.4
108, 15:13:26,70.036813,164.291312,960.117188,96.4
109, 15:13:26,69.448272,162.23402,951.012074,96.4
110, 15:13:26,68.829506,159.578954,942.078835,96.4
111, 15:13:26,68.532434,157.874763,937.203125,96.4
112, 15:13:26,68.450955,156.971236,935.441051,96.4
113, 15:13:26,68.343395,156.439276,933.331676,96.4
114, 15:13:26,68.198587,155.558357,931.208097,96.4
115, 15:13:26,68.045494,154.87938,929.216619,96.4
116, 15:13:26,68.034446,154.824929,929.770597,96.4
117, 15:13:26,68.07193,154.867779,929.797585,96.4
118, 15:13:26,68.055516,154.864938,930.220881,96.4
119, 15:13:26,67.999803,154.667022,929.456676,96.4
120, 15:13:27,67.992543,154.635298,929.723722,96.15
121, 15:13:27,67.982205,154.760535,929.435369,96.15
122, 15:13:27,68.073153,155.046165,931.461648,96.15
123, 15:13:27,68.206558,155.485677,932.644176,96.15
124, 15:13:27,68.264757,156.071259,933.441761,96.15
125, 15:13:27,68.358546,156.481416,934.729403,96.15
126, 15:13:27,68.47096,156.893466,936.704545,96.15
127, 15:13:27,68.544744,157.315578,938.211648,96.15
128, 15:13:27,68.640586,157.652344,939.433949,96.15
129, 15:13:27,68.750829,158.167732,940.830256,96.15
130, 15:13:27,68.823903,158.597656,942.946733,96.15
131, 15:13:27,68.904593,159.092566,943.49858,96.15
132, 15:13:27,68.988005,159.478693,944.872159,96.15
133, 15:13:27,69.051057,159.85535,945.765625,96.15
134, 15:13:27,69.137034,160.245384,947.517756,96.15
135, 15:13:27,69.235993,160.76527,948.648438,96.15
136, 15:13:27,69.323272,161.117543,950.15696,96.15
137, 15:13:27,69.021701,160.14465,945.410511,96.15
138, 15:13:27,68.307292,157.241951,935.994318,96.15
139, 15:13:27,67.773477,154.676018,927.394176,96.15
140, 15:13:27,67.53997,153.350971,924.225142,96.15
141, 15:13:27,67.390862,152.479877,921.575284,96.15
142, 15:13:27,67.173532,151.571259,918.271307,96.15
143, 15:13:27,66.962555,150.634351,915.891335,96.15
144, 15:13:27,66.869476,150.196496,915.0,96.15
145, 15:13:27,66.957386,150.408144,915.767045,96.15
146, 15:13:27,67.035511,150.72822,917.551136,96.15
147, 15:13:27,67.052241,150.829545,917.349432,96.15
148, 15:13:27,67.07197,150.890625,918.079545,96.15
149, 15:13:27,67.089844,151.06688,918.09446,96.15
150, 15:13:28,67.200402,151.416548,920.022017,96.15
151, 15:13:28,67.34375,152.023674,921.698864,96.15
152, 15:13:28,67.483191,152.591146,923.305398,96.15
153, 15:13:28,67.609217,153.077178,925.119318,96.15
154, 15:13:28,67.748895,153.736269,927.860795,96.15
155, 15:13:28,67.82919,154.186908,927.584517,96.15
156, 15:13:28,67.940538,154.711293,930.977983,96.15
157, 15:13:28,68.067945,155.263494,932.098011,96.15
158, 15:13:28,68.192432,155.957031,934.432528,96.15
159, 15:13:28,68.337989,156.520597,936.211648,96.15
160, 15:13:28,68.459754,157.077652,937.542614,96.15
161, 15:13:28,68.578401,157.74562,939.567472,96.15
162, 15:13:28,68.716501,158.41276,941.970881,96.15
163, 15:13:28,68.831005,159.065933,943.759233,96.15
164, 15:13:28,68.974866,159.735677,946.09304,96.15
165, 15:13:28,69.088147,160.233665,946.853693,96.15
166, 15:13:28,69.224392,160.885298,949.615767,96.15
167, 15:13:28,69.304688,161.382812,950.944602,96.15
168, 15:13:28,68.970447,160.296757,945.885653,96.15
169, 15:13:28,68.260772,157.458452,935.108665,96.15
170, 15:13:28,67.782039,155.18892,928.292614,96.15
171, 15:13:28,67.632181,154.103456,924.987216,96.15
172, 15:13:28,67.561237,153.53125,924.619318,96.15
173, 15:13:28,67.453125,152.860322,923.011364,96.15
174, 15:13:28,67.284091,152.160511,920.431818,96.15
175, 15:13:28,67.267085,152.081558,920.043324,96.15
176, 15:13:28,67.397806,152.581676,923.055398,96.15
177, 15:13:28,67.522175,152.987453,923.862216,96.15
178, 15:13:28,67.55232,153.092093,924.805398,96.15
179, 15:13:28,67.581873,153.249882,925.115767,96.15
180, 15:13:29,67.642243,153.486387,926.378551,96.175
181, 15:13:29,67.764915,154.017282,928.245739,96.175
182, 15:13:29,67.876144,154.697562,929.764915,96.175
183, 15:13:29,68.022806,155.253078,931.075284,96.175
184, 15:13:29,68.155106,155.895715,934.195312,96.175
185, 15:13:29,68.292219,156.448153,935.725852,96.175
186, 15:13:29,68.33432,157.05599,936.833097,96.175
187, 15:13:29,68.460622,157.630919,938.200284,96.175
188, 15:13:29,68.585819,158.163234,940.473722,96.175
189, 15:13:29,68.733546,158.830374,941.786222,96.175
190, 15:13:29,68.869594,159.44259,944.34304,96.175
191, 15:13:29,68.989662,159.98035,946.31392,96.175
192, 15:13:29,69.112098,160.693774,948.15696,96.175
193, 15:13:29,69.257694,161.274503,949.970881,96.175
194, 15:13:29,69.389283,161.790483,952.353693,96.175
195, 15:13:29,69.473564,162.378078,953.117898,96.175
196, 15:13:29,69.560172,162.929096,954.645597,96.175
197, 15:13:29,69.727115,163.557292,956.724432,96.175
198, 15:13:29,69.848327,164.083807,958.778409,96.175
199, 15:13:29,69.884588,164.44117,959.149858,96.175
200, 15:13:29,69.382418,162.878788,952.127841,96.175
201, 15:13:29,68.673966,159.957031,941.742188,96.175
202, 15:13:29,68.265309,157.732955,935.474432,96.175
203, 15:13:29,68.139047,156.749053,932.75,96.175
204, 15:13:29,68.065775,156.292022,932.510653,96.175
205, 15:13:29,67.947838,155.504972,930.115057,96.175
206, 15:13:29,67.780934,154.777462,928.505682,96.175
207, 15:13:29,67.805122,154.634115,928.730824,96.175
208, 15:13:29,67.919744,154.991241,930.859375,96.175
209, 15:13:29,67.976365,155.295099,931.242188,96.175
210, 15:13:30,67.96946,155.35535,931.634943,96.15
211, 15:13:30,67.97893,155.393703,931.77983,96.15
212, 15:13:30,68.045731,155.590317,932.584517,96.15
213, 15:13:30,68.123856,156.053859,933.487926,96.15
214, 15:13:30,68.280066,156.624763,935.555398,96.15
215, 15:13:30,68.407276,157.343513,937.802557,96.15
216, 15:13:30,68.532236,157.852391,939.702415,96.15
217, 15:13:30,68.614426,158.493845,940.241477,96.15
218, 15:13:30,68.721591,158.948864,943.076705,96.15
219, 15:13:30,68.845604,159.442116,943.601562,96.15
220, 15:13:30,68.957741,159.888849,946.017756,96.15
221, 15:13:30,69.071496,160.427083,946.642045,96.15
222, 15:13:30,69.211293,161.024976,949.107244,96.15
223, 15:13:30,69.326152,161.615294,951.146307,96.15
224, 15:13:30,69.435685,162.187263,952.240057,96.15
225, 15:13:30,69.558515,162.742306,954.073153,96.15
226, 15:13:30,69.677675,163.33937,956.860085,96.15
227, 15:13:30,69.808318,163.914062,958.572443,96.15
228, 15:13:30,69.953125,164.526515,961.059659,96.15
229, 15:13:30,70.074219,165.072562,962.179688,96.15
230, 15:13:30,70.059935,165.131037,962.169744,96.15
231, 15:13:30,69.463108,162.873224,952.986506,96.15
232, 15:13:30,68.735717,159.641809,942.694602,96.15
233, 15:13:30,68.370265,157.491477,936.735795,96.15
234, 15:13:30,68.266256,156.523674,934.539773,96.15
235, 15:13:30,68.207071,156.054924,934.088068,96.15
236, 15:13:30,68.05449,155.301728,931.205256,96.15
237, 15:13:30,67.979482,154.747159,930.3125,96.15
238, 15:13:30,68.077375,155.000118,932.071733,96.15
239, 15:13:30,68.161577,155.309067,932.990767,96.15
240, 15:13:31,68.160551,155.365175,933.361506,96.15
241, 15:13:31,68.139717,155.258168,932.495028,96.15
242, 15:13:31,68.124803,155.267874,933.078835,96.15
243, 15:13:31,68.178898,155.490767,932.788352,96.15
244, 15:13:31,68.327139,155.969579,935.902699,96.15
245, 15:13:31,68.459596,156.632102,937.769886,96.15
246, 15:13:31,68.625197,157.198509,939.901278,96.15
247, 15:13:31,68.746094,157.780421,940.960938,96.15
248, 15:13:31,68.802202,158.247988,942.257812,96.15
249, 15:13:31,68.913194,158.701231,943.576705,96.15
250, 15:13:31,69.038826,159.166193,946.235795,96.15
251, 15:13:31,69.118687,159.642519,946.747159,96.15
252, 15:13:31,69.231574,160.132694,949.443892,96.15
253, 15:13:31,69.33282,160.510298,949.965199,96.15
254, 15:13:31,69.447838,161.156013,951.856534,96.15
255, 15:13:31,69.563013,161.719815,953.196733,96.15
256, 15:13:31,69.703441,162.411932,955.90625,96.15
257, 15:13:31,69.756944,162.630208,956.630682,96.15
258, 15:13:31,69.348643,161.067235,950.375,96.15
259, 15:13:31,68.537405,157.615057,937.934659,96.15
260, 15:13:31,68.012113,154.746567,930.496449,96.15
261, 15:13:31,67.795415,153.528764,927.263494,96.15
262, 15:13:31,67.693853,152.998698,926.841619,96.15
263, 15:13:31,67.560054,152.330729,923.995739,96.15
264, 15:13:31,67.422506,151.68892,922.289773,96.15
265, 15:13:31,67.479088,151.868134,923.18608,96.15
266, 15:13:31,67.665365,152.452533,925.987926,96.15
267, 15:13:31,67.702849,152.603812,926.68821,96.15
268, 15:13:31,67.690459,152.614465,926.729403,96.15
269, 15:13:31,67.695352,152.578954,926.385653,96.15
270, 15:13:32,67.75726,152.8125,927.431818,96.15
271, 15:13:32,67.873737,153.277936,928.451705,96.15
272, 15:13:32,68.000513,153.908262,931.546165,96.15
273, 15:13:32,68.167495,154.4433,932.37571,96.15
274, 15:13:32,68.331242,155.084635,935.178267,96.15
275, 15:13:32,68.461372,155.655895,936.671165,96.15
276, 15:13:32,68.580058,156.099077,938.37571,96.15
277, 15:13:32,68.674282,156.502012,939.046165,96.15
278, 15:13:32,68.810251,157.13009,941.800426,96.15
279, 15:13:32,68.903685,157.595052,942.095881,96.15
280, 15:13:32,69.024937,158.151515,944.661932,96.15
281, 15:13:32,69.149858,158.757812,946.598011,96.15
282, 15:13:32,69.30962,159.362571,949.039062,96.15
283, 15:13:32,69.452454,160.08795,950.973722,96.15
284, 15:13:32,69.534288,160.602865,951.881392,96.15
285, 15:13:32,69.292693,159.719934,947.634943,96.15
286, 15:13:32,68.421402,156.276989,935.727273,96.15
287, 15:13:32,67.749014,153.083215,926.729403,96.15
288, 15:13:32,67.414299,151.622159,921.6875,96.15
289, 15:13:32,67.323469,151.1134,920.944602,96.15
290, 15:13:32,67.148714,150.436198,918.932528,96.15
291, 15:13:32,67.00797,149.750237,915.93608,96.15
292, 15:13:32,66.98114,149.651278,916.56108,96.15
293, 15:13:32,67.171954,150.327888,919.87642,96.15
294, 15:13:32,67.334793,150.943774,921.557528,96.15
295, 15:13:32,67.392637,151.240412,921.848722,96.15
296, 15:13:32,67.43821,151.402225,922.305398,96.15
297, 15:13:32,67.521149,151.692235,923.633523,96.15
298, 15:13:32,67.689631,152.284328,926.089489,96.15
299, 15:13:32,67.892361,153.020833,928.201705,96.15
300, 15:13:33,68.04431,153.729048,930.575994,96.1
301, 15:13:33,68.218434,154.474432,932.664773,96.1
302, 15:13:33,68.397727,155.232481,935.409091,96.1
303, 15:13:33,68.539733,155.889086,936.848722,96.1
304, 15:13:33,68.664733,156.532552,939.110085,96.1
305, 15:13:33,68.849195,157.173059,941.296875,96.1
306, 15:13:33,69.003827,157.936671,944.043324,96.1
307, 15:13:33,69.18458,158.742188,945.541193,96.1
308, 15:13:33,69.329151,159.535275,948.103693,96.1
309, 15:13:33,69.485125,160.372041,950.337358,96.1
310, 15:13:33,69.628472,161.247159,952.71875,96.1
311, 15:13:33,69.804096,162.03776,954.735085,96.1
312, 15:13:33,69.948351,162.793916,957.104403,96.1
313, 15:13:33,70.039102,163.46295,958.391335,96.1
314, 15:13:33,70.203954,164.261009,961.685369,96.1
315, 15:13:33,70.350458,165.146544,963.245739,96.1
316, 15:13:33,70.462792,165.803149,966.077415,96.1
317, 15:13:33,70.195549,164.871686,961.431818,96.1
318, 15:13:33,69.434383,162.041785,950.645597,96.1
319, 15:13:33,69.001302,160.032315,943.716619,96.1
320, 15:13:33,68.861466,159.154948,942.020597,96.1
321, 15:13:33,68.809343,158.816288,941.034091,96.1
322, 15:13:33,68.742977,158.227983,939.870739,96.1
323, 15:13:33,68.625947,157.680871,937.860795,96.1
324, 15:13:33,68.615846,157.499053,938.019886,96.1
325, 15:13:33,68.759628,157.980587,938.880682,96.1
326, 15:13:33,68.853812,158.584162,941.664062,96.1
327, 15:13:33,68.885417,158.888731,942.005682,96.1
328, 15:13:33,68.93971,159.110322,943.3125,96.1
329, 15:13:33,69.005603,159.5509,944.629261,96.1
330, 15:13:34,69.150253,160.201231,946.232955,96.1
331, 15:13:34,69.294784,160.895241,948.022017,96.1
332, 15:13:34,69.425229,161.559304,950.335938,96.1
333, 15:13:34,69.545731,162.266927,951.791903,96.1
334, 15:13:34,69.682923,162.995265,954.426136,96.1
335, 15:13:34,69.786301,163.508523,955.852273,96.1
336, 15:13:34,69.867898,164.10464,957.446023,96.1
337, 15:13:34,70.014994,164.757102,958.928977,96.1
338, 15:13:34,70.183791,165.600142,962.27983,96.1
339, 15:13:34,70.32777,166.307173,964.763494,96.1
340, 15:13:34,70.470131,166.965317,967.524858,96.1
341, 15:13:34,70.53926,167.629616,967.692472,96.1
342, 15:13:34,70.69622,168.342448,969.992188,96.1
343, 15:13:34,70.826981,169.024029,972.183949,96.1
344, 15:13:34,70.953835,169.664062,974.958807,96.1
345, 15:13:34,71.080058,170.35902,976.816051,96.1
346, 15:13:34,71.185764,170.992424,978.386364,96.1
347, 15:13:34,71.320983,171.593632,980.027699,96.1
348, 15:13:34,71.463305,172.361506,982.214489,96.1
349, 15:13:34,71.549085,172.805871,983.940341,96.1
350, 15:13:34,71.11482,171.36482,977.484375,96.1
351, 15:13:34,70.462082,168.851207,967.470881,96.1
352, 15:13:34,70.147491,167.182055,962.955966,96.1
353, 15:13:34,70.053977,166.526515,960.880682,96.1
354, 15:13:34,70.049203,166.070904,960.965199,96.1
355, 15:13:34,69.933396,165.463542,958.335227,96.1
356, 15:13:34,69.808199,164.810488,956.462358,96.1
357, 15:13:34,69.842842,164.77758,956.253551,96.1
358, 15:13:34,69.899384,164.891809,958.18892,96.1
359, 15:13:34,69.936671,164.986151,958.269176,96.1
360, 15:13:35,69.929096,164.885298,958.067472,96.1
361, 15:13:35,69.918245,164.822443,957.653409,96.1
362, 15:13:35,69.947285,164.870739,958.548295,96.1
363, 15:13:35,70.004459,165.080137,959.054688,96.1
364, 15:13:35,70.092014,165.516572,960.463068,96.1
365, 15:13:35,70.206637,165.927202,962.145597,96.1
366, 15:13:35,70.283341,166.291785,963.818892,96.1
367, 15:13:35,70.365925,166.704782,964.578125,96.1
368, 15:13:35,70.418561,167.094223,965.866477,96.1
369, 15:13:35,70.480627,167.362334,966.242188,96.1
370, 15:13:35,70.575245,167.787287,967.840199,96.1
371, 15:13:35,70.63952,168.159091,969.34375,96.1
372, 15:13:35,70.720683,168.541312,970.284801,96.1
373, 15:13:35,70.824337,169.026989,971.676136,96.1
374, 15:13:35,70.908065,169.395123,972.856534,96.1
375, 15:13:35,71.014678,169.86411,974.96875,96.1
376, 15:13:35,71.114978,170.330729,975.896307,96.1
377, 15:13:35,71.201705,170.844697,977.301136,96.1
378, 15:13:35,71.191801,170.911103,977.50071,96.1
379, 15:13:35,70.706716,169.083215,970.198153,96.1
380, 15:13:35,70.054293,166.122159,960.221591,96.1
381, 15:13:35,69.684896,164.063684,953.34233,96.1
382, 15:13:35,69.528251,162.892045,951.125,96.1
383, 15:13:35,69.414141,162.160038,948.642045,96.1
384, 15:13:35,69.268545,161.196259,946.009943,96.1
385, 15:13:35,69.150371,160.326586,944.263494,96.1
386, 15:13:35,69.152146,160.27983,944.8125,96.1
387, 15:13:35,69.181266,160.3634,945.444602,96.1
388, 15:13:35,69.16209,160.259943,945.244318,96.1
389, 15:13:35,69.094342,159.875829,943.868608,96.1
390, 15:13:36,69.068655,159.689394,943.849432,95.85
391, 15:13:36,69.063802,159.688565,942.708097,95.85
392, 15:13:36,69.128354,159.962713,944.480824,95.85
393, 15:13:36,69.251026,160.427794,946.71733,95.85
394, 15:13:36,69.321378,160.812145,947.662642,95.85
395, 15:13:36,69.40404,161.174716,948.517045,95.85
396, 15:13:36,69.487729,161.493963,950.31321,95.85
397, 15:13:36,69.536735,161.842685,950.43679,95.85
398, 15:13:36,69.603496,162.155658,952.340199,95.85
399, 15:13:36,69.677951,162.423532,952.68608,95.85
400, 15:13:36,69.772925,162.872751,954.514915,95.85
401, 15:13:36,69.865096,163.370857,955.716619,95.85
402, 15:13:36,69.946062,163.717921,957.111506,95.85
403, 15:13:36,70.046323,164.3866,957.978693,95.85
404, 15:13:36,70.151199,164.874053,960.230114,95.85
405, 15:13:36,70.079309,164.713305,959.12642,95.85
406, 15:13:36,69.427991,162.136719,949.411222,95.85
407, 15:13:36,68.734691,158.749527,938.698864,95.85
408, 15:13:36,68.335582,156.511482,932.378551,95.85
409, 15:13:36,68.166667,155.427083,929.877841,95.85
410, 15:13:36,67.978535,154.497633,928.383523,95.85
411, 15:13:36,67.779119,153.527699,924.382102,95.85
412, 15:13:36,67.584399,152.790128,923.078835,95.85
413, 15:13:36,67.663905,152.926373,923.822443,95.85
414, 15:13:36,67.800742,153.433949,926.62358,95.85
415, 15:13:36,67.812973,153.570076,926.139205,95.85
416, 15:13:36,67.813486,153.539418,926.514915,95.85
417, 15:13:36,67.820668,153.611624,926.129972,95.85
418, 15:13:36,67.866517,153.893111,927.793324,95.85
419, 15:13:36,68.000789,154.393939,928.693182,95.85
420, 15:13:37,68.136009,155.062855,931.416903,95.9
421, 15:13:37,68.30741,155.662287,933.669744,95.9
422, 15:13:37,68.435567,156.283026,935.68679,95.9
423, 15:13:37,68.539023,156.821141,936.651278,95.9
424, 15:13:37,68.635298,157.233546,938.600142,95.9
425, 15:13:37,68.703638,157.673887,939.012074,95.9
426, 15:13:37,68.784367,158.187382,940.510653,95.9
427, 15:13:37,68.9491,158.860559,943.291193,95.9
428, 15:13:37,69.07485,159.493016,944.776278,95.9
429, 15:13:37,69.180437,160.168679,946.509233,95.9
430, 15:13:37,69.30816,160.708097,948.870739,95.9
431, 15:13:37,69.418442,161.328243,950.387074,95.9
432, 15:13:37,69.526791,161.891927,951.453835,95.9
433, 15:13:37,69.630208,162.44839,953.411932,95.9
434, 15:13:37,69.750671,163.118963,955.054688,95.9
435, 15:13:37,69.853378,163.631155,957.011364,95.9
436, 15:13:37,69.433909,162.119437,950.506392,95.9
437, 15:13:37,68.560211,158.498816,937.802557,95.9
438, 15:13:37,67.958807,155.503314,929.059659,95.9
439, 15:13:37,67.703993,154.008286,924.93608,95.9
440, 15:13:37,67.56901,153.21224,923.020597,95.9
441, 15:13:37,67.394492,152.439631,920.862216,95.9
442, 15:13:37,67.148438,151.518703,917.65767,95.9
443, 15:13:37,67.105942,151.180516,916.662642,95.9
444, 15:13:37,67.268032,151.68383,919.753551,95.9
445, 15:13:37,67.418876,152.269886,921.355114,95.9
446, 15:13:37,67.436435,152.409683,922.497869,95.9
447, 15:13:37,67.444523,152.537169,922.495739,95.9
448, 15:13:37,67.481179,152.722893,923.246449,95.9
449, 15:13:37,67.594066,153.183712,924.073864,95.9
450, 15:13:38,67.762232,153.815104,926.637784,95.875
451, 15:13:38,67.862926,154.463305,928.262784,95.875
452, 15:13:38,68.034051,155.151397,930.644176,95.875
453, 15:13:38,68.157631,155.758878,931.899858,95.875
454, 15:13:38,68.253078,156.228456,934.166193,95.875
455, 15:13:38,68.35831,156.823035,934.691051,95.875
456, 15:13:38,68.426531,157.380445,937.566761,95.875
457, 15:13:38,68.566682,157.873343,938.478693,95.875
458, 15:13:38,68.693024,158.566288,940.451705,95.875
459, 15:13:38,68.828677,159.172112,942.066761,95.875
460, 15:13:38,68.955256,159.846828,944.606534,95.875
461, 15:13:38,69.089291,160.55812,945.803267,95.875
462, 15:13:38,69.233862,161.168442,947.882812,95.875
463, 15:13:38,69.334596,161.714015,949.534091,95.875
464, 15:13:38,69.441209,162.284328,952.240057,95.875
465, 15:13:38,69.545928,162.959754,952.366477,95.875
466, 15:13:38,69.694089,163.592685,955.132812,95.875
467, 15:13:38,69.688368,163.759706,955.066761,95.875
468, 15:13:38,69.058554,161.431345,946.258523,95.875
469, 15:13:38,68.211687,157.752012,933.779119,95.875
470, 15:13:38,67.703717,155.15992,925.902699,95.875
471, 15:13:38,67.528606,154.035156,923.560369,95.875
472, 15:13:38,67.402936,153.289773,921.852273,95.875
473, 15:13:38,67.203283,152.358902,919.224432,95.875
474, 15:13:38,67.036182,151.600971,916.529119,95.875
475, 15:13:38,67.05307,151.606179,916.395597,95.875
476, 15:13:38,67.232718,152.225142,919.433239,95.875
477, 15:13:38,67.294192,152.512784,920.545455,95.875
478, 15:13:38,67.287603,152.714134,921.023438,95.875
479, 15:13:38,67.328401,152.770241,920.90554,95.875
480, 15:13:39,67.386009,153.064749,921.939631,95.9
481, 15:13:39,67.512824,153.701823,923.580256,95.9
482, 15:13:39,67.63664,154.123935,924.712358,95.9
483, 15:13:39,67.761048,154.738163,927.176136,95.9
484, 15:13:39,67.863676,155.281368,928.759233,95.9
485, 15:13:39,68.011127,155.901278,930.745739,95.9
486, 15:13:39,68.081597,156.416667,932.380682,95.9
487, 15:13:39,68.156408,156.820076,933.448864,95.9
488, 15:13:39,68.265467,157.268466,935.482955,95.9
489, 15:13:39,68.360243,157.854877,936.257102,95.9
490, 15:13:39,68.458294,158.388613,937.868608,95.9
491, 15:13:39,68.598051,158.948509,939.154119,95.9
492, 15:13:39,68.710069,159.466383,940.965909,95.9
493, 15:13:39,68.831203,160.005445,942.680398,95.9
494, 15:13:39,68.945668,160.561435,944.453835,95.9
495, 15:13:39,69.066248,161.137666,946.098722,95.9
496, 15:13:39,69.115491,161.70206,947.240767,95.9
497, 15:13:39,69.129853,161.805753,947.047585,95.9
498, 15:13:39,68.559422,159.747869,938.455966,95.9
499, 15:13:39,67.735204,156.054096,926.955256,95.9
500, 15:13:39,67.210464,153.555634,919.598011,95.9
501, 15:13:39,67.054017,152.442353,916.807528,95.9
502, 15:13:39,66.943103,151.803267,915.774148,95.9
503, 15:13:39,66.792811,151.09955,912.614347,95.9
504, 15:13:39,66.672033,150.531723,911.210227,95.9
505, 15:13:39,66.781605,150.839607,912.898438,95.9
506, 15:13:39,66.931345,151.420928,915.673295,95.9
507, 15:13:39,66.936316,151.457623,915.214489,95.9
508, 15:13:39,66.896149,151.40625,914.914773,95.9
509, 15:13:39,66.918442,151.393584,915.006392,95.9
510, 15:13:40,66.97968,151.747751,916.279119,95.9
511, 15:13:40,67.119515,152.365175,918.881392,95.9
512, 15:13:40,67.284643,153.014441,921.041193,95.9
513, 15:13:40,67.385772,153.661103,922.051847,95.9
514, 15:13:40,67.566604,154.136837,924.65625,95.9
515, 15:13:40,67.697601,154.790246,926.261364,95.9
516, 15:13:40,67.794744,155.308002,927.754261,95.9
517, 15:13:40,67.899108,155.868726,929.402699,95.9
518, 15:13:40,67.999605,156.411222,930.93892,95.9
519, 15:13:40,68.129814,157.069839,933.146307,95.9
520, 15:13:40,68.265152,157.553977,934.613636,95.9
521, 15:13:40,68.42878,158.292495,937.002131,95.9
522, 15:13:40,68.593829,159.027699,939.680398,95.9
523, 15:13:40,68.749842,159.776042,941.295455,95.9
524, 15:13:40,68.706913,159.827178,940.761364,95.9
525, 15:13:40,68.108823,157.593987,931.433239,95.9
526, 15:13:40,67.389047,154.419034,921.303977,95.9
527, 15:13:40,67.008681,152.362689,915.181818,95.9
528, 15:13:40,66.922901,151.884706,914.433239,95.9
529, 15:13:40,66.895794,151.372041,912.575994,95.9
530, 15:13:40,66.797467,150.88009,911.706676,95.9
531, 15:13:40,66.809028,150.810606,911.721591,95.9
532, 15:13:40,67.001697,151.496567,914.411222,95.9
533, 15:13:40,67.217448,152.236151,917.286222,95.9
534, 15:13:40,67.254932,152.480232,918.012074,95.9
535, 15:13:40,67.270597,152.6991,918.742898,95.9
536, 15:13:40,67.328993,152.942945,919.370739,95.9
537, 15:13:40,67.482047,153.534209,921.242188,95.9
538, 15:13:40,67.670731,154.284446,924.43679,95.9
539, 15:13:40,67.810843,155.062737,925.794034,95.9
540, 15:13:41,68.02762,155.855587,928.565341,95.875
541, 15:13:41,68.173059,156.702888,930.37358,95.875
542, 15:13:41,68.327967,157.42803,932.642045,95.875
543, 15:13:41,68.48694,158.184304,934.710938,95.875
544, 15:13:41,68.637311,158.895833,937.616477,95.875
545, 15:13:41,68.832071,159.72017,939.622159,95.875
546, 15:13:41,69.00142,160.580966,942.707386,95.875
547, 15:13:41,69.191051,161.407907,944.410511,95.875
548, 15:13:41,69.391769,162.372277,948.506392,95.875
549, 15:13:41,69.575639,163.279474,950.90696,95.875
550, 15:13:41,69.740017,164.096946,953.252131,95.875
551, 15:13:41,69.659525,163.978101,952.485085,95.875
552, 15:13:41,69.074929,161.821378,943.104403,95.875
553, 15:13:41,68.572049,159.627604,935.424716,95.875
554, 15:13:41,68.419429,158.641335,933.072443,95.875
555, 15:13:41,68.345565,158.248343,931.379261,95.875
556, 15:13:41,68.271386,157.690104,930.802557,95.875
557, 15:13:41,68.177754,157.16063,928.827415,95.875
558, 15:13:41,68.1497,157.010653,929.140625,95.875
559, 15:13:41,68.326586,157.676728,931.267756,95.875
560, 15:13:41,68.455887,158.195786,933.237216,95.875
561, 15:13:41,68.464449,158.406132,933.183949,95.875
562, 15:13:41,68.493411,158.57777,934.071733,95.875
563, 15:13:41,68.510377,158.736151,933.658381,95.875
564, 15:13:41,68.582307,159.035748,935.225852,95.875
565, 15:13:41,68.725892,159.756747,937.196733,95.875
566, 15:13:41,68.889678,160.521307,939.272727,95.875
567, 15:13:41,68.975576,161.159683,940.801847,95.875
568, 15:13:41,69.142558,161.826823,944.429688,95.875
569, 15:13:41,69.254261,162.491477,944.863636,95.875
570, 15:13:42,69.386719,163.17294,947.949574,95.875
571, 15:13:42,69.505287,163.76018,949.296875,95.875
572, 15:13:42,69.64461,164.517637,952.120028,95.875
573, 15:13:42,69.780934,165.256155,953.713068,95.875
574, 15:13:42,69.890191,165.934777,955.350142,95.875
575, 15:13:42,70.059856,166.710346,958.003551,95.875
576, 15:13:42,70.185843,167.351562,959.723011,95.875
577, 15:13:42,70.282,167.94117,961.439631,95.875
578, 15:13:42,70.422309,168.634351,963.666903,95.875
579, 15:13:42,70.56179,169.390388,966.288352,95.875
580, 15:13:42,70.706795,170.064039,968.659801,95.875
581, 15:13:42,70.722301,170.491714,968.518466,95.875
582, 15:13:42,70.370423,169.204545,963.556818,95.875
583, 15:13:42,69.842724,167.235559,955.921875,95.875
584, 15:13:42,69.62137,166.111269,951.838068,95.875
585, 15:13:42,69.598288,165.728101,950.675426,95.875
586, 15:13:42,69.563526,165.460464,951.089489,95.875
587, 15:13:42,69.449337,164.869792,948.681818,95.875
588, 15:13:42,69.359138,164.389441,947.34233,95.875
589, 15:13:42,69.360046,164.407315,947.355824,95.875
590, 15:13:42,69.493411,164.802675,949.202415,95.875
591, 15:13:42,69.54068,165.045336,950.172585,95.875
592, 15:13:42,69.549164,165.065578,950.50142,95.875
593, 15:13:42,69.556226,165.178622,950.341619,95.875
594, 15:13:42,69.581242,165.375355,951.198153,95.875
595, 15:13:42,69.67152,165.792969,951.987926,95.875
596, 15:13:42,69.771899,166.332741,955.004972,95.875
597, 15:13:42,69.871094,166.744437,955.787642,95.875
598, 15:13:42,69.958294,167.221473,957.408381,95.875
599, 15:13:42,70.066091,167.582268,958.081676,95.875
600, 15:13:43,70.136403,168.017637,959.887074,95.875
601, 15:13:43,70.209044,168.391809,960.916193,95.875
602, 15:13:43,70.289062,168.823153,962.06392,95.875
603, 15:13:43,70.372435,169.366832,963.851562,95.875
604, 15:13:43,70.482323,169.844697,965.863636,95.875
605, 15:13:43,70.593592,170.33428,966.40625,95.875
606, 15:13:43,70.696536,170.920099,969.00071,95.875
607, 15:13:43,70.77833,171.469934,970.464489,95.875
608, 15:13:43,70.875,171.938447,971.772727,95.875
609, 15:13:43,70.97313,172.438802,973.243608,95.875
610, 15:13:43,71.049242,172.921875,974.53125,95.875
611, 15:13:43,71.137587,173.363991,975.479403,95.875
612, 15:13:43,71.242148,173.824929,977.287642,95.875
613, 15:13:43,71.329151,174.38518,978.598011,95.875
614, 15:13:43,71.39023,174.782434,979.81108,95.875
615, 15:13:43,71.140467,173.892519,975.670455,95.875
616, 15:13:43,70.548414,171.439749,967.459517,95.875
617, 15:13:43,70.186435,169.631747,961.739347,95.875
618, 15:13:43,70.104324,168.53267,959.221591,95.875
619, 15:13:43,70.034643,167.872396,957.549716,95.875
620, 15:13:43,69.910985,167.067235,955.201705,95.875
621, 15:13:43,69.764796,166.13009,951.712358,95.875
622, 15:13:43,69.706163,165.680043,951.401278,95.875
623, 15:13:43,69.770794,165.767874,952.300426,95.875
624, 15:13:43,69.779948,165.750355,952.115767,95.875
625, 15:13:43,69.722538,165.475379,952.207386,95.875
626, 15:13:43,69.68462,165.192116,951.166903,95.875
627, 15:13:43,69.652068,165.069366,950.646307,95.875
628, 15:13:43,69.674282,165.014323,950.668324,95.875
629, 15:13:43,69.71654,165.249527,951.275568,95.875
630, 15:13:44,69.783617,165.504735,951.974432,95.625
631, 15:13:44,69.848682,165.790365,953.191051,95.625
632, 15:13:44,69.932213,166.058002,954.348011,95.625
633, 15:13:44,69.967093,166.273438,954.927557,95.625
634, 15:13:44,70.028251,166.598485,956.241477,95.625
635, 15:13:44,70.093789,166.797467,956.935369,95.625
636, 15:13:44,70.171875,167.155777,958.752841,95.625
637, 15:13:44,70.23039,167.503196,958.950994,95.625
638, 15:13:44,70.325047,167.908381,961.271307,95.625
639, 15:13:44,70.39899,168.267992,961.988636,95.625
640, 15:13:44,70.506195,168.744437,963.710938,95.625
641, 15:13:44,70.549716,169.036458,964.210227,95.625
642, 15:13:44,70.662603,169.566406,966.435369,95.625
643, 15:13:44,70.784998,170.040128,967.337358,95.625
644, 15:13:44,70.83574,170.319247,968.745028,95.625
645, 15:13:44,70.516375,169.111151,963.337358,95.625
646, 15:13:44,69.896859,166.334044,954.609375,95.625
647, 15:13:44,69.48694,164.247751,947.182528,95.625
648, 15:13:44,69.345881,163.070312,945.117898,95.625
649, 15:13:44,69.221946,162.379853,943.054688,95.625
650, 15:13:44,69.074455,161.544863,940.215199,95.625
651, 15:13:44,68.894926,160.562618,937.463778,95.625
652, 15:13:44,68.868174,160.303385,936.959517,95.625
653, 15:13:44,68.893387,160.378078,937.978693,95.625
654, 15:13:44,68.851444,160.211056,937.851562,95.625
655, 15:13:44,68.729443,159.791075,936.212358,95.625
656, 15:13:44,68.698587,159.617069,936.460938,95.625
657, 15:13:44,68.720289,159.622041,935.928267,95.625
658, 15:13:44,68.779356,159.788826,936.46875,95.625
659, 15:13:44,68.888731,160.223011,938.028409,95.625
660, 15:13:45,68.987532,160.722538,940.536932,95.6
661, 15:13:45,69.069721,161.09884,941.914062,95.6
662, 15:13:45,69.14532,161.457268,943.31179,95.6
663, 15:13:45,69.209675,161.899858,943.910511,95.6
664, 15:13:45,69.318182,162.332386,945.900568,95.6
665, 15:13:45,69.416746,162.750237,946.825284,95.6
666, 15:13:45,69.501657,163.224669,948.393466,95.6
667, 15:13:45,69.626342,163.761127,950.18608,95.6
668, 15:13:45,69.776555,164.397372,952.614347,95.6
669, 15:13:45,69.941959,165.039418,953.742188,95.6
670, 15:13:45,70.024858,165.560843,956.350852,95.6
671, 15:13:45,69.872554,165.053267,953.96733,95.6
672, 15:13:45,69.239544,162.511245,944.013494,95.6
673, 15:13:45,68.718,159.947088,935.949574,95.6
674, 15:13:45,68.491477,158.441288,932.125,95.6
675, 15:13:45,68.347064,157.666667,930.463068,95.6
676, 15:13:45,68.218277,156.870739,928.642045,95.6
677, 15:13:45,68.05449,155.98402,925.412642,95.6
678, 15:13:45,68.011127,155.727983,925.413352,95.6
679, 15:13:45,68.108783,156.055043,926.733665,95.6
680, 15:13:45,68.247751,156.680753,929.40554,95.6
681, 15:13:45,68.251302,156.796046,928.855824,95.6
682, 15:13:45,68.275213,156.822325,929.220881,95.6
683, 15:13:45,68.31834,157.004735,930.110795,95.6
684, 15:13:45,68.473919,157.561435,932.308949,95.6
685, 15:13:45,68.606574,158.268584,933.739347,95.6
686, 15:13:45,68.791272,158.970407,936.711648,95.6
687, 15:13:45,68.946181,159.70786,938.727273,95.6
688, 15:13:45,69.072049,160.320786,940.336648,95.6
689, 15:13:45,69.218789,160.942827,942.639915,95.6
690, 15:13:46,69.323745,161.576349,945.307528,95.575
691, 15:13:46,69.500592,162.243726,947.095881,95.575
692, 15:13:46,69.676965,163.030421,949.838778,95.575
693, 15:13:46,69.824574,163.794271,951.731534,95.575
694, 15:13:46,69.972025,164.455848,954.317472,95.575
695, 15:13:46,70.13589,165.217803,956.3125,95.575
696, 15:13:46,70.302636,166.011127,959.06392,95.575
697, 15:13:46,70.512034,166.832505,961.810369,95.575
698, 15:13:46,70.637666,167.554096,964.449574,95.575
699, 15:13:46,70.477983,167.173532,961.65483,95.575
700, 15:13:46,69.995384,164.94259,954.095881,95.575
701, 15:13:46,69.658144,163.243845,948.0625,95.575
702, 15:13:46,69.576823,162.560014,946.129972,95.575
703, 15:13:46,69.574692,162.192353,945.881392,95.575
704, 15:13:46,69.479443,161.830374,944.56179,95.575
705, 15:13:46,69.399384,161.22893,942.416193,95.575
706, 15:13:46,69.404159,161.114938,943.314631,95.575
707, 15:13:46,69.537682,161.69117,944.877131,95.575
708, 15:13:46,69.656802,162.279593,947.362216,95.575
709, 15:13:46,69.713699,162.568655,947.454545,95.575
710, 15:13:46,69.781447,162.892164,948.986506,95.575
711, 15:13:46,69.895952,163.302912,950.587358,95.575
712, 15:13:46,69.995226,163.823272,952.40554,95.575
713, 15:13:46,70.146938,164.618371,953.806818,95.575
714, 15:13:46,70.292969,165.261955,957.037642,95.575
715, 15:13:46,70.454072,166.052083,959.627841,95.575
716, 15:13:46,70.603141,166.767282,961.569602,95.575
717, 15:13:46,70.717093,167.441998,963.478693,95.575
718, 15:13:46,70.843316,168.074455,965.864347,95.575
719, 15:13:46,70.967251,168.78054,967.47017,95.575
720, 15:13:47,71.097222,169.517045,969.980114,95.575
721, 15:13:47,71.246567,170.23544,972.642756,95.575
722, 15:13:47,71.373895,171.01089,974.886364,95.575
723, 15:13:47,71.52395,171.752723,976.354403,95.575
724, 15:13:47,71.659564,172.439867,978.4375,95.575
725, 15:13:47,71.823982,173.194957,981.306108,95.575
726, 15:13:47,71.947246,173.894768,982.976562,95.575
727, 15:13:47,72.065735,174.551373,984.731534,95.575
728, 15:13:47,72.216383,175.339489,986.96875,95.575
729, 15:13:47,72.338108,176.061198,988.588778,95.575
730, 15:13:47,72.245975,175.903172,988.629261,95.575
731, 15:13:47,71.762232,174.107718,981.035511,95.575
732, 15:13:47,71.509785,173.052083,977.122159,95.575
733, 15:13:47,71.529159,172.922704,977.095881,95.575
734, 15:13:47,71.537918,172.936671,977.523438,95.575
735, 15:13:47,71.502486,172.738518,977.129972,95.575
736, 15:13:47,71.436553,172.447917,976.377841,95.575
737, 15:13:47,71.44914,172.434067,975.865767,95.575
738, 15:13:47,71.550347,172.84517,977.488636,95.575
739, 15:13:47,71.678583,173.358665,979.035511,95.575
740, 15:13:47,71.697562,173.492779,980.507812,95.575
741, 15:13:47,71.71291,173.591383,980.647727,95.575
742, 15:13:47,71.72822,173.799716,980.943182,95.575
743, 15:13:47,71.821575,174.209517,981.46733,95.575
744, 15:13:47,71.859454,174.751657,982.677557,95.575
745, 15:13:47,71.931542,175.098603,984.097301,95.575
746, 15:13:47,72.047901,175.580256,986.379261,95.575
747, 15:13:47,72.133483,175.959635,986.860085,95.575
748, 15:13:47,72.220328,176.534564,988.710227,95.575
749, 15:13:47,72.299795,176.898438,990.231534,95.575
750, 15:13:48,72.380445,177.236506,990.995739,95.55
751, 15:13:48,72.446417,177.790009,991.856534,95.55
752, 15:13:48,72.532592,178.264915,993.862216,95.55
753, 15:13:48,72.610046,178.768111,993.96946,95.55
754, 15:13:48,72.699337,179.28267,996.477273,95.55
755, 15:13:48,72.781329,179.798059,997.828125,95.55
756, 15:13:48,72.864189,180.196733,999.350852,95.55
757, 15:13:48,72.959241,180.699692,1000.445312,95.55
758, 15:13:48,73.035985,181.194602,1002.696023,95.55
759, 15:13:48,73.115294,181.70857,1003.984375,95.55
760, 15:13:48,73.21003,182.188329,1005.848722,95.55
761, 15:13:48,73.284722,182.716856,1006.389205,95.55
762, 15:13:48,73.388771,183.156842,1008.205256,95.55
763, 15:13:48,73.102667,182.131392,1003.799716,95.55
764, 15:13:48,72.567038,180.146188,996.803267,95.55
765, 15:13:48,72.404632,179.177438,993.647017,95.55
766, 15:13:48,72.460701,178.994318,994.443182,95.55
767, 15:13:48,72.499329,178.761245,994.226562,95.55
768, 15:13:48,72.427596,178.273793,992.472301,95.55
769, 15:13:48,72.377525,177.685133,991.088068,95.55
770, 15:13:48,72.383523,177.640625,991.502841,95.55
771, 15:13:48,72.434659,177.700758,991.994318,95.55
772, 15:13:48,72.468355,177.65696,992.828125,95.55
773, 15:13:48,72.442195,177.562382,991.772017,95.55
774, 15:13:48,72.40846,177.317708,991.517045,95.55
775, 15:13:48,72.401239,177.150687,990.463778,95.55
776, 15:13:48,72.439631,177.225142,991.68608,95.55
777, 15:13:48,72.475497,177.310961,992.041903,95.55
778, 15:13:48,72.533696,177.5116,992.74858,95.55
779, 15:13:48,72.596828,177.700047,993.044034,95.55
780, 15:13:49,72.61991,177.916548,994.351562,95.525
781, 15:13:49,72.641927,178.063092,994.117188,95.525
782, 15:13:49,72.690735,178.222301,995.31108,95.525
783, 15:13:49,72.723248,178.382339,995.305398,95.525
784, 15:13:49,72.764086,178.509588,995.753551,95.525
785, 15:13:49,72.855193,178.866714,997.21733,95.525
786, 15:13:49,72.890664,179.034683,997.631392,95.525
787, 15:13:49,72.943419,179.325047,998.427557,95.525
788, 15:13:49,72.995107,179.602746,999.789773,95.525
789, 15:13:49,73.053464,179.853101,1000.564631,95.525
790, 15:13:49,73.126499,180.234612,1001.242898,95.525
791, 15:13:49,73.180319,180.548059,1002.112216,95.525
792, 15:13:49,73.11044,180.382457,1001.664062,95.525
793, 15:13:49,72.637587,178.386245,994.556108,95.525
794, 15:13:49,72.24633,176.228101,988.158381,95.525
795, 15:13:49,72.110164,175.139678,985.457386,95.525
796, 15:13:49,72.097735,174.625592,985.81321,95.525
797, 15:13:49,72.023556,174.059304,984.168324,95.525
798, 15:13:49,71.916824,173.242898,981.704545,95.525
799, 15:13:49,71.866517,172.77474,980.759233,95.525
800, 15:13:49,71.891335,172.737926,981.339489,95.525
801, 15:13:49,71.888376,172.703007,981.084517,95.525
802, 15:13:49,71.823114,172.305516,980.205256,95.525
803, 15:13:49,71.750237,171.934896,979.052557,95.525
804, 15:13:49,71.726799,171.759943,979.295455,95.525
805, 15:13:49,71.738755,171.745147,979.121449,95.525
806, 15:13:49,71.76239,171.838305,979.163352,95.525
807, 15:13:49,71.83069,172.03705,979.872869,95.525
808, 15:13:49,71.847104,172.259115,980.668324,95.525
809, 15:13:49,71.896544,172.372869,981.078125,95.525
810, 15:13:50,71.917771,172.554924,981.838068,95.525
811, 15:13:50,71.977075,172.730942,982.013494,95.525
812, 15:13:50,72.01381,172.96804,983.083807,95.525
813, 15:13:50,72.052715,173.197917,983.909091,95.525
814, 15:13:50,72.10105,173.449929,984.935369,95.525
815, 15:13:50,72.19697,173.772254,985.957386,95.525
816, 15:13:50,72.288313,174.175071,987.524858,95.525
817, 15:13:50,72.337476,174.503433,987.077415,95.525
818, 15:13:50,72.27328,174.293324,986.850852,95.525
819, 15:13:50,71.7689,172.190223,979.138494,95.525
820, 15:13:50,71.296204,169.881037,972.700994,95.525
821, 15:13:50,71.083097,168.581203,968.129261,95.525
822, 15:13:50,71.0,167.829072,967.872159,95.525
823, 15:13:50,70.874014,167.126302,965.595881,95.525
824, 15:13:50,70.686316,166.248816,961.953125,95.525
825, 15:13:50,70.60101,165.600852,960.440341,95.525
826, 15:13:50,70.603851,165.610322,961.076705,95.525
827, 15:13:50,70.615412,165.716974,961.378551,95.525
828, 15:13:50,70.588344,165.552438,960.899858,95.525
829, 15:13:50,70.495344,165.197206,959.044034,95.525
830, 15:13:50,70.473051,165.05741,959.347301,95.525
831, 15:13:50,70.49349,165.144768,959.610085,95.525
832, 15:13:50,70.534643,165.321259,960.583807,95.525
833, 15:13:50,70.597459,165.693419,961.356534,95.525
834, 15:13:50,70.64465,165.936316,961.819602,95.525
835, 15:13:50,70.67807,166.24633,962.671165,95.525
836, 15:13:50,70.799676,166.729048,965.220881,95.525
837, 15:13:50,70.839923,167.13009,965.104403,95.525
838, 15:13:50,70.923098,167.431226,967.183949,95.525
839, 15:13:50,70.99566,167.806108,967.68892,95.525
840, 15:13:51,71.097972,168.371567,970.433949,95.5
841, 15:13:51,71.225379,168.841383,971.176136,95.5
842, 15:13:51,71.314394,169.221591,972.267045,95.5
843, 15:13:51,71.397648,169.733191,974.348011,95.5
844, 15:13:51,71.507457,170.312618,976.585938,95.5
845, 15:13:51,71.626618,170.882694,977.546165,95.5
846, 15:13:51,71.706282,171.437973,979.829545,95.5
847, 15:13:51,71.631195,171.126539,977.622869,95.5
848, 15:13:51,71.042219,168.871922,969.473011,95.5
849, 15:13:51,70.597498,166.6817,962.226562,95.5
850, 15:13:51,70.435567,165.737571,959.800426,95.5
851, 15:13:51,70.369081,165.171165,957.924716,95.5
852, 15:13:51,70.280421,164.653291,956.735085,95.5
853, 15:13:51,70.122277,163.865412,953.808949,95.5
854, 15:13:51,69.980942,163.339134,952.191051,95.5
855, 15:13:51,70.051413,163.425071,952.652699,95.5
856, 15:13:51,70.155895,163.769768,954.03054,95.5
857, 15:13:51,70.188092,163.88956,954.862926,95.5
858, 15:13:51,70.18462,164.01456,954.581676,95.5
859, 15:13:51,70.23256,164.1366,955.129261,95.5
860, 15:13:51,70.285077,164.477865,956.59446,95.5
861, 15:13:51,70.42298,164.937973,958.09375,95.5
862, 15:13:51,70.490017,165.459635,959.450994,95.5
863, 15:13:51,70.619358,166.016217,961.668324,95.5
864, 15:13:51,70.703322,166.567353,962.997869,95.5
865, 15:13:51,70.806542,167.049361,964.745028,95.5
866, 15:13:51,70.906368,167.530185,966.033381,95.5
867, 15:13:51,71.023438,168.125237,967.992898,95.5
868, 15:13:51,71.100971,168.646188,969.118608,95.5
869, 15:13:51,71.242306,169.22313,970.503551,95.5
870, 15:13:52,71.366043,169.801728,974.029119,95.5
871, 15:13:52,71.451389,170.418087,974.454545,95.5
872, 15:13:52,71.574929,170.976207,976.851562,95.5
873, 15:13:52,71.67732,171.558475,978.06108,95.5
874, 15:13:52,71.77837,172.136245,979.908381,95.5
875, 15:13:52,71.912011,172.718513,981.34517,95.5
876, 15:13:52,72.024069,173.326468,983.424716,95.5
877, 15:13:52,72.114899,173.865057,984.448864,95.5
878, 15:13:52,72.24712,174.429806,987.357244,95.5
879, 15:13:52,72.363557,174.997396,988.774148,95.5
880, 15:13:52,72.423414,175.446851,989.672585,95.5
881, 15:13:52,72.028685,174.136719,983.522017,95.5
882, 15:13:52,71.451665,171.606889,975.825994,95.5
883, 15:13:52,71.191091,170.249882,970.303267,95.5
884, 15:13:52,71.158775,169.800189,969.647727,95.5
885, 15:13:52,71.116517,169.498698,968.977983,95.5
886, 15:13:52,71.025331,168.867661,967.507102,95.5
887, 15:13:52,70.871765,168.125237,965.166193,95.5
888, 15:13:52,70.863676,168.028054,965.364347,95.5
889, 15:13:52,70.924164,168.209517,966.433239,95.5
890, 15:13:52,70.985638,168.448864,966.943182,95.5
891, 15:13:52,70.967527,168.356652,967.03196,95.5
892, 15:13:52,70.950994,168.371449,967.524148,95.5
893, 15:13:52,70.980627,168.447562,967.253551,95.5
894, 15:13:52,71.03997,168.714134,968.253551,95.5
895, 15:13:52,71.153764,169.123698,969.71946,95.5
896, 15:13:52,71.244437,169.529238,970.840199,95.5
897, 15:13:52,71.299598,169.97313,971.645597,95.5
898, 15:13:52,71.381589,170.323745,973.308949,95.5
899, 15:13:52,71.417969,170.752959,973.398438,95.5
900, 15:13:53,71.501105,171.0625,975.232955,95.45
901, 15:13:53,71.552636,171.368608,975.884943,95.45
902, 15:13:53,71.635772,171.819721,977.574574,95.45
903, 15:13:53,71.743568,172.36991,978.591619,95.45
904, 15:13:53,71.870265,172.806818,981.116477,95.45
905, 15:13:53,71.971117,173.247159,981.738636,95.45
906, 15:13:53,72.032868,173.74349,983.580256,95.45
907, 15:13:53,72.135653,174.128551,984.609375,95.45
908, 15:13:53,72.219697,174.594223,985.386364,95.45
909, 15:13:53,72.312895,175.038589,986.96733,95.45
910, 15:13:53,72.385062,175.502249,988.573153,95.45
911, 15:13:53,72.500237,176.033381,989.700284,95.45
912, 15:13:53,72.498658,176.240294,990.160511,95.45
913, 15:13:53,72.121804,174.769768,984.817472,95.45
914, 15:13:53,71.532868,172.170099,975.850142,95.45
915, 15:13:53,71.230311,170.52758,970.304688,95.45
916, 15:13:53,71.116122,169.762666,968.706676,95.45
917, 15:13:53,71.081163,169.334399,968.605824,95.45
918, 15:13:53,70.957939,168.660748,966.274148,95.45
919, 15:13:53,70.847656,168.016454,964.277699,95.45
920, 15:13:53,70.808673,167.876302,964.110085,95.45
921, 15:13:53,70.857244,168.008759,964.555398,95.45
922, 15:13:53,70.866162,167.89536,965.289773,95.45
923, 15:13:53,70.80157,167.60831,964.127131,95.45
924, 15:13:53,70.77324,167.461766,963.716619,95.45
925, 15:13:53,70.816959,167.603812,964.497869,95.45
926, 15:13:53,70.973958,168.177557,967.170455,95.45
927, 15:13:53,71.093395,168.773082,968.823153,95.45
928, 15:13:53,71.17661,169.119318,970.477273,95.45
929, 15:13:53,71.238755,169.487571,970.925426,95.45
930, 15:13:54,71.294231,169.817827,971.941051,95.425
931, 15:13:54,71.302517,170.015507,972.442472,95.425
932, 15:13:54,71.373067,170.21295,973.666903,95.425
933, 15:13:54,71.477154,170.61044,974.739347,95.425
934, 15:13:54,71.533262,170.919863,975.885653,95.425
935, 15:13:54,71.595604,171.364938,976.450994,95.425
936, 15:13:54,71.698864,171.806345,978.400568,95.425
937, 15:13:54,71.797743,172.303741,979.447443,95.425
938, 15:13:54,71.907394,172.809777,981.15696,95.425
939, 15:13:54,71.985006,173.216856,982.207386,95.425
940, 15:13:54,71.978812,173.313329,982.567472,95.425
941, 15:13:54,71.511206,171.41572,975.122159,95.425
942, 15:13:54,70.879182,168.531013,966.34517,95.425
943, 15:13:54,70.517164,166.699219,959.825994,95.425
944, 15:13:54,70.404514,165.830492,957.59375,95.425
945, 15:13:54,70.302636,165.156487,955.995739,95.425
946, 15:13:54,70.12358,164.267045,953.818182,95.425
947, 15:13:54,69.962161,163.440933,950.881392,95.425
948, 15:13:54,69.954467,163.342093,951.191761,95.425
949, 15:13:54,69.981218,163.420928,952.190341,95.425
950, 15:13:54,69.985795,163.289299,952.346591,95.425
951, 15:13:54,69.916824,163.059659,951.113636,95.425
952, 15:13:54,69.903567,162.965436,951.213068,95.425
953, 15:13:54,69.914615,162.969697,951.196023,95.425
954, 15:13:54,69.980863,163.213897,952.010653,95.425
955, 15:13:54,70.101089,163.648911,953.708807,95.425
956, 15:13:54,70.178977,164.140625,955.1875,95.425
957, 15:13:54,70.254893,164.552557,956.332386,95.425
958, 15:13:54,70.31976,164.841383,957.338068,95.425
959, 15:13:54,70.399187,165.197088,958.355824,95.425
960, 15:13:55,70.465396,165.617779,959.414062,95.15
961, 15:13:55,70.542574,166.070431,960.041903,95.15
962, 15:13:55,70.64828,166.585938,962.731534,95.15
963, 15:13:55,70.763376,166.955374,964.272017,95.15
964, 15:13:55,70.840949,167.383168,965.554688,95.15
965, 15:13:55,70.953362,167.95857,966.84233,95.15
966, 15:13:55,71.063092,168.565223,968.814631,95.15
967, 15:13:55,71.198824,169.041548,970.007812,95.15
968, 15:13:55,71.059699,168.660156,968.588778,95.15
969, 15:13:55,70.355508,165.815578,957.53267,95.15
970, 15:13:55,69.709044,162.632339,947.637784,95.15
971, 15:13:55,69.395281,160.742188,942.132102,95.15
972, 15:13:55,69.231416,159.728812,939.59446,95.15
973, 15:13:55,69.034288,158.800308,936.935369,95.15
974, 15:13:55,68.793403,157.684186,933.494318,95.15
975, 15:13:55,68.652699,156.941998,931.31108,95.15
976, 15:13:55,68.691446,157.051136,932.534091,95.15
977, 15:13:55,68.781211,157.405185,933.857244,95.15
978, 15:13:55,68.765112,157.444484,934.041903,95.15
979, 15:13:55,68.731929,157.317945,933.427557,95.15
980, 15:13:55,68.726681,157.314986,932.963778,95.15
981, 15:13:55,68.796796,157.585938,934.15767,95.15
982, 15:13:55,68.899306,158.200284,936.767045,95.15
983, 15:13:55,69.022767,158.744437,938.284801,95.15
984, 15:13:55,69.15116,159.390033,939.783381,95.15
985, 15:13:55,69.279198,160.016098,941.900568,95.15
986, 15:13:55,69.399621,160.458807,943.221591,95.15
987, 15:13:55,69.496449,160.892282,944.68892,95.15
988, 15:13:55,69.563605,161.370265,946.261364,95.15
989, 15:13:55,69.680792,161.882339,947.950284,95.15
990, 15:13:56,69.803149,162.522609,950.965199,95.15
991, 15:13:56,69.91718,163.074455,951.855824,95.15
992, 15:13:56,70.000986,163.702296,953.299006,95.15
993, 15:13:56,70.144768,164.374171,955.574574,95.15
994, 15:13:56,70.26089,164.902936,956.852273,95.15
995, 15:13:56,70.369713,165.446733,958.009943,95.15
996, 15:13:56,70.471867,165.974313,960.638494,95.15
997, 15:13:56,70.601918,166.529238,962.564631,95.15
998, 15:13:56,70.741477,167.151989,964.573864,95.15
999, 15:13:56,70.811158,167.631866,966.24858,95.15
1000, 15:13:56,70.499763,166.536222,960.34233,95.15
1001, 15:13:56,69.629853,162.916548,947.90554,95.15
1002, 15:13:56,68.958136,159.756037,937.629972,95.15
1003, 15:13:56,68.687539,157.987808,932.716619,95.15
1004, 15:13:56,68.55086,157.181937,931.810369,95.15
1005, 15:13:56,68.401121,156.286695,928.18892,95.15
1006, 15:13:56,68.145163,155.208215,924.340199,95.15
1007, 15:13:56,68.015704,154.638968,923.49858,95.15
1008, 15:13:56,68.111703,154.91276,925.229403,95.15
1009, 15:13:56,68.218947,155.390743,926.858665,95.15
1010, 15:13:56,68.231652,155.528764,927.453835,95.15
1011, 15:13:56,68.227707,155.497514,926.925426,95.15
1012, 15:13:56,68.273595,155.705729,928.410511,95.15
1013, 15:13:56,68.371686,156.117424,929.431818,95.15
1014, 15:13:56,68.487453,156.712831,931.867898,95.15
1015, 15:13:56,68.668876,157.335227,933.400568,95.15
1016, 15:13:56,68.790325,157.879498,935.288352,95.15
1017, 15:13:56,68.885062,158.527817,936.399858,95.15
1018, 15:13:56,68.997475,159.137784,938.596591,95.15
1019, 15:13:56,69.108428,159.57339,939.835227,95.15
1020, 15:13:57,69.210622,160.143229,941.93892,95.15
1021, 15:13:57,69.320076,160.653883,943.977273,95.15
1022, 15:13:57,69.484967,161.383878,946.851562,95.15
1023, 15:13:57,69.58215,162.05232,946.87358,95.15
1024, 15:13:57,69.728101,162.681463,950.131392,95.15
1025, 15:13:57,69.860006,163.365057,951.696023,95.15
1026, 15:13:57,69.97968,163.926728,953.583097,95.15
1027, 15:13:57,70.086924,164.495147,954.817472,95.15
1028, 15:13:57,70.200166,165.008641,956.611506,95.15
1029, 15:13:57,70.308791,165.601562,958.066761,95.15
1030, 15:13:57,70.444602,166.275095,960.869318,95.15
1031, 15:13:57,70.569918,166.882102,962.389205,95.15
1032, 15:13:57,70.414141,166.537879,960.698864,95.15
1033, 15:13:57,69.706558,163.512666,949.754972,95.15
1034, 15:13:57,68.941525,160.045218,938.177557,95.15
1035, 15:13:57,68.563684,158.071259,931.884943,95.15
1036, 15:13:57,68.452533,157.316406,930.977983,95.15
1037, 15:13:57,68.389323,156.675071,928.43679,95.15
1038, 15:13:57,68.225182,155.812382,926.629972,95.15
1039, 15:13:57,68.117819,155.299479,925.910511,95.15
1040, 15:13:57,68.2195,155.548177,927.695312,95.15
1041, 15:13:57,68.302596,155.906842,928.310369,95.15
1042, 15:13:57,68.29435,156.02178,928.130682,95.15
1043, 15:13:57,68.259549,156.006392,927.933239,95.15
1044, 15:13:57,68.283578,155.97384,928.59304,95.15
1045, 15:13:57,68.394413,156.362216,929.559659,95.15
1046, 15:13:57,68.525647,156.912642,931.836648,95.15
1047, 15:13:57,68.656171,157.627131,934.055398,95.15
1048, 15:13:57,68.785827,158.322443,935.914773,95.15
1049, 15:13:57,68.922427,158.876657,937.808239,95.15
1050, 15:13:58,69.02324,159.253433,939.21946,94.9
1051, 15:13:58,69.059186,159.705019,939.727273,94.9
1052, 15:13:58,69.183909,160.281368,941.549006,94.9
1053, 15:13:58,69.301097,160.739465,943.666903,94.9
1054, 15:13:58,69.370305,161.267637,943.997869,94.9
1055, 15:13:58,69.500631,161.816761,946.252841,94.9
1056, 15:13:58,69.610559,162.33215,948.180398,94.9
1057, 15:13:58,69.740964,162.95348,950.428267,94.9
1058, 15:13:58,69.82197,163.389205,951.357955,94.9
1059, 15:13:58,69.966146,164.007339,953.257102,94.9
1060, 15:13:58,70.072443,164.612216,954.84375,94.9
1061, 15:13:58,69.970644,164.280777,953.639205,94.9
1062, 15:13:58,69.212831,161.349669,942.211648,94.9
1063, 15:13:58,68.496765,157.941525,930.882102,94.9
1064, 15:13:58,68.108546,155.904238,925.235085,94.9
1065, 15:13:58,67.983349,155.094934,923.71733,94.9
1066, 15:13:58,67.926018,154.569247,922.852983,94.9
1067, 15:13:58,67.764717,153.830611,919.858665,94.9
1068, 15:13:58,67.712476,153.540838,919.895597,94.9
1069, 15:13:58,67.816485,153.920573,921.816051,94.9
1070, 15:13:58,67.904593,154.235085,922.776989,94.9
1071, 15:13:58,67.87788,154.233073,922.435369,94.9
1072, 15:13:58,67.844697,154.073864,922.301136,94.9
1073, 15:13:58,67.836687,154.114228,921.480824,94.9
1074, 15:13:58,67.927991,154.424598,923.431108,94.9
1075, 15:13:58,68.082584,155.018111,925.693892,94.9
1076, 15:13:58,68.199377,155.57777,926.884233,94.9
1077, 15:13:58,68.323035,156.257931,929.195312,94.9
1078, 15:13:58,68.442353,156.747041,930.834517,94.9
1079, 15:13:58,68.542495,157.208925,931.514915,94.9
1080, 15:13:59,68.62721,157.62358,933.389205,94.95
1081, 15:13:59,68.705453,158.105469,933.683949,94.95
1082, 15:13:59,68.809225,158.535156,936.458097,94.95
1083, 15:13:59,68.918403,159.090436,937.215909,94.95
1084, 15:13:59,69.020163,159.666075,939.078835,94.95
1085, 15:13:59,69.131787,160.241004,939.965909,94.95
1086, 15:13:59,69.292495,160.86044,943.350142,94.95
1087, 15:13:59,69.290088,161.107481,943.417614,94.95
1088, 15:13:59,68.8067,159.145952,935.262074,94.95
1089, 15:13:59,67.973564,155.515862,923.541193,94.95
1090, 15:13:59,67.433475,152.83357,915.646307,94.95
1091, 15:13:59,67.210425,151.676255,912.889915,94.95
1092, 15:13:59,67.048177,150.991122,910.264915,94.95
1093, 15:13:59,66.818853,150.068774,907.066051,94.95
1094, 15:13:59,66.611703,149.312855,905.297585,94.95
1095, 15:13:59,66.65771,149.416312,905.398438,94.95
1096, 15:13:59,66.834793,150.04794,908.75071,94.95
1097, 15:13:59,66.899621,150.314867,908.84375,94.95
1098, 15:13:59,66.905027,150.380327,909.299006,94.95
1099, 15:13:59,66.937303,150.52687,909.428267,94.95
1100, 15:13:59,67.01669,150.788234,911.050426,94.95
1101, 15:13:59,67.170099,151.366359,912.797585,94.95
1102, 15:13:59,67.380169,152.128196,916.206676,94.95
1103, 15:13:59,67.527541,152.774384,917.671875,94.95
1104, 15:13:59,67.690341,153.404356,919.741477,94.95
1105, 15:13:59,67.838226,154.031723,921.735795,94.95
1106, 15:13:59,67.949653,154.508049,924.045455,94.95
1107, 15:13:59,68.075442,155.089489,925.147727,94.95
1108, 15:13:59,68.239031,155.756866,927.228693,94.95
1109, 15:13:59,68.385496,156.414062,929.009943,94.95
1110, 15:14:00,68.526555,157.055516,931.455256,94.95
1111, 15:14:00,68.663589,157.734612,933.22017,94.95
1112, 15:14:00,68.797704,158.42294,935.622869,94.95
1113, 15:14:00,68.913155,159.031132,936.351562,94.95
1114, 15:14:00,69.086884,159.806108,939.430398,94.95
1115, 15:14:00,69.218711,160.515033,941.615767,94.95
1116, 15:14:00,69.247711,160.972301,941.990057,94.95
1117, 15:14:00,68.842448,159.323745,934.601562,94.95
1118, 15:14:00,68.006708,155.835938,923.822443,94.95
1119, 15:14:00,67.482639,153.073864,915.332386,94.95
1120, 15:14:00,67.2442,151.937618,911.921165,94.95
1121, 15:14:00,67.097775,151.268229,909.955966,94.95
1122, 15:14:00,66.909249,150.487689,907.982955,94.95
1123, 15:14:00,66.727707,149.738991,905.470881,94.95
1124, 15:14:00,66.726089,149.698153,905.776989,94.95
1125, 15:14:00,66.881905,150.300545,908.243608,94.95
1126, 15:14:00,67.014481,150.800545,910.291903,94.95
1127, 15:14:00,67.051531,150.994555,910.194602,94.95
1128, 15:14:00,67.088305,151.096828,911.254261,94.95
1129, 15:14:00,67.151791,151.347893,911.272017,94.95
1130, 15:14:00,67.296954,151.907434,914.02983,94.95
1131, 15:14:00,67.454743,152.585346,915.395597,94.95
1132, 15:14:00,67.639954,153.356889,918.039062,94.95
1133, 15:14:00,67.793245,154.064867,920.653409,94.95
1134, 15:14:00,67.937421,154.76965,923.018466,94.95
1135, 15:14:00,68.083057,155.323982,924.574574,94.95
1136, 15:14:00,68.218829,155.924479,926.461648,94.95
1137, 15:14:00,68.347025,156.55812,928.303267,94.95
1138, 15:14:00,68.458333,157.14678,930.272727,94.95
1139, 15:14:00,68.613518,158.021899,931.858665,94.95
1140, 15:14:01,68.755642,158.756037,934.414062,94.95
1141, 15:14:01,68.905974,159.463187,936.409801,94.95
1142, 15:14:01,69.046717,160.134943,938.917614,94.95
1143, 15:14:01,69.187027,160.797822,940.377841,94.95
1144, 15:14:01,69.328046,161.464725,942.410511,94.95
1145, 15:14:01,69.412642,162.101089,945.129261,94.95
1146, 15:14:01,69.556503,162.755208,946.519886,94.95
1147, 15:14:01,69.641217,163.408026,947.266335,94.95
1148, 15:14:01,69.757852,163.905185,949.581676,94.95
1149, 15:14:01,69.314433,162.307884,942.600142,94.95
1150, 15:14:01,68.563802,159.063092,931.318892,94.95
1151, 15:14:01,68.064946,156.689631,923.34517,94.95
1152, 15:14:01,67.868963,155.57848,920.053267,94.95
1153, 15:14:01,67.768466,154.828125,918.738636,94.95
1154, 15:14:01,67.5698,154.045099,917.043324,94.95
1155, 15:14:01,67.409249,153.217803,914.170455,94.95
1156, 15:14:01,67.369792,153.057765,914.190341,94.95
1157, 15:14:01,67.501933,153.470762,915.790483,94.95
1158, 15:14:01,67.602154,153.829664,918.28196,94.95
1159, 15:14:01,67.624605,153.991714,917.725852,94.95
1160, 15:14:01,67.664299,154.16714,918.238636,94.95
1161, 15:14:01,67.683515,154.44117,918.382812,94.95
1162, 15:14:01,67.791627,154.968632,921.573153,94.95
1163, 15:14:01,67.929609,155.456913,921.9375,94.95
1164, 15:14:01,68.059817,156.129735,924.394886,94.95
1165, 15:14:01,68.174045,156.814276,926.016335,94.95
1166, 15:14:01,68.345526,157.498224,929.083097,94.95
1167, 15:14:01,68.428622,158.011719,930.556108,94.95
1168, 15:14:01,68.565223,158.531368,932.367188,94.95
1169, 15:14:01,68.676807,159.137902,933.384233,94.95
1170, 15:14:02,68.816998,159.694366,935.714489,94.95
1171, 15:14:02,68.892282,160.176373,936.387784,94.95
1172, 15:14:02,69.00655,160.778646,938.117898,94.95
1173, 15:14:02,69.104798,161.357481,939.661932,94.95
1174, 15:14:02,69.200442,161.892992,941.815341,94.95
1175, 15:14:02,69.290641,162.358191,942.56108,94.95
1176, 15:14:02,69.426886,162.961056,944.607244,94.95
1177, 15:14:02,69.543403,163.497633,946.258523,94.95
1178, 15:14:02,69.615096,164.101918,947.645597,94.95
1179, 15:14:02,69.47092,163.562855,945.945312,94.95
1180, 15:14:02,68.764047,160.696496,934.579545,94.95
1181, 15:14:02,68.205177,157.95928,925.275568,94.95
1182, 15:14:02,67.946851,156.435724,922.534801,94.95
1183, 15:14:02,67.828283,155.738636,919.448864,94.95
1184, 15:14:02,67.693221,155.056463,918.699574,94.95
1185, 15:14:02,67.533381,154.316525,915.671875,94.95
1186, 15:14:02,67.523201,154.115057,916.6875,94.95
1187, 15:14:02,67.646465,154.482481,918.036932,94.95
1188, 15:14:02,67.698943,154.609612,919.379261,94.95
1189, 15:14:02,67.68241,154.614938,918.252131,94.95
1190, 15:14:02,67.645557,154.569247,919.179688,94.95
1191, 15:14:02,67.681739,154.667377,918.822443,94.95
1192, 15:14:02,67.786813,155.085819,920.117188,94.95
1193, 15:14:02,67.92949,155.669152,921.93821,94.95
1194, 15:14:02,68.074811,156.298769,924.982955,94.95
1195, 15:14:02,68.149542,156.875237,925.791193,94.95
1196, 15:14:02,68.2689,157.321851,927.908381,94.95
1197, 15:14:02,68.343671,157.755919,928.379261,94.95
1198, 15:14:02,68.44038,158.142164,930.921165,94.95
1199, 15:14:02,68.549755,158.623698,931.083097,94.95
1200, 15:14:03,68.630919,159.047585,932.37358,94.95
1201, 15:14:03,68.727786,159.479285,934.003551,94.95
1202, 15:14:03,68.848051,160.146425,936.566051,94.95
1203, 15:14:03,68.968355,160.74929,938.600852,94.95
1204, 15:14:03,69.095249,161.388968,940.399148,94.95
1205, 15:14:03,69.174321,161.729403,941.453125,94.95
1206, 15:14:03,68.830729,160.491241,936.56108,94.95
1207, 15:14:03,68.081518,157.210938,924.526989,94.95
1208, 15:14:03,67.542061,154.522964,916.268466,94.95
1209, 15:14:03,67.340554,153.061435,913.419744,94.95
1210, 15:14:03,67.185369,152.325047,911.615057,94.95
1211, 15:14:03,67.013652,151.528172,908.791193,94.95
1212, 15:14:03,66.849669,150.777699,906.242898,94.95
1213, 15:14:03,66.879932,150.771425,906.810369,94.95
1214, 15:14:03,67.012824,151.323982,909.429688,94.95
1215, 15:14:03,67.074653,151.552083,909.767045,94.95
1216, 15:14:03,67.054372,151.520123,910.359375,94.95
1217, 15:14:03,67.04723,151.486387,910.159801,94.95
1218, 15:14:03,67.081637,151.64027,911.128551,94.95
1219, 15:14:03,67.224747,152.226326,912.991477,94.95
1220, 15:14:03,67.387311,152.84375,915.590909,94.95
1221, 15:14:03,67.541509,153.456439,917.161932,94.95
1222, 15:14:03,67.634706,153.945786,918.495739,94.95
1223, 15:14:03,67.732126,154.362571,919.371449,94.95
1224, 15:14:03,67.797901,154.815104,921.203125,94.95
1225, 15:14:03,67.904553,155.231179,921.870028,94.95
1226, 15:14:03,67.998658,155.773438,924.021307,94.95
1227, 15:14:03,68.112019,156.413234,925.777699,94.95
1228, 15:14:03,68.214883,156.880445,927.208807,94.95
1229, 15:14:03,68.355784,157.497751,929.534801,94.95
1230, 15:14:04,68.506787,158.266098,931.755682,94.95
1231, 15:14:04,68.703677,158.909801,934.492898,94.95
1232, 15:14:04,68.817945,159.551847,936.302557,94.95
1233, 15:14:04,68.664457,159.053504,933.568182,94.95
1234, 15:14:04,67.862847,155.872159,922.559659,94.95
1235, 15:14:04,67.115254,152.322088,910.986506,94.95
1236, 15:14:04,66.688013,150.267164,905.091619,94.95
1237, 15:14:04,66.508759,149.373343,902.171875,94.95
1238, 15:14:04,66.34959,148.579545,899.991477,94.95
1239, 15:14:04,66.110953,147.611269,896.911932,94.95
1240, 15:14:04,65.981652,147.072325,895.817472,94.95
1241, 15:14:04,66.11265,147.515507,897.283381,94.95
1242, 15:14:04,66.319957,148.198982,901.685369,94.95
1243, 15:14:04,66.358546,148.428859,901.428267,94.95
1244, 15:14:04,66.366911,148.53492,902.044744,94.95
1245, 15:14:04,66.384983,148.694247,902.057528,94.95
1246, 15:14:04,66.562579,149.247396,904.620739,94.95
1247, 15:14:04,66.753512,149.903054,907.074574,94.95
1248, 15:14:04,66.857205,150.478338,909.054688,94.95
1249, 15:14:04,67.053385,151.216974,911.259233,94.95
1250, 15:14:04,67.181897,151.732718,913.359375,94.95
1251, 15:14:04,67.313999,152.266809,914.046875,94.95
1252, 15:14:04,67.382891,152.742898,916.443182,94.95
1253, 15:14:04,67.510259,153.26089,917.539773,94.95
1254, 15:14:04,67.666903,153.774858,919.464489,94.95
1255, 15:14:04,67.775016,154.45715,920.575284,94.95
1256, 15:14:04,67.911932,155.071496,923.744318,94.95
1257, 15:14:04,68.047033,155.737689,925.159091,94.95
1258, 15:14:04,68.153409,156.361269,926.840909,94.95
1259, 15:14:04,68.283578,156.923651,928.402699,94.95
1260, 15:14:05,68.422743,157.454309,930.353693,94.95
1261, 15:14:05,68.506353,158.015743,931.517756,94.95
1262, 15:14:05,68.652975,158.633641,934.264915,94.95
1263, 15:14:05,68.770044,159.285511,935.744318,94.95
1264, 15:14:05,68.819247,159.56901,936.621449,94.95
1265, 15:14:05,68.252407,157.40258,927.355824,94.95
1266, 15:14:05,67.275371,153.18312,914.144176,94.95
1267, 15:14:05,66.608586,150.175663,904.491477,94.95
1268, 15:14:05,66.377841,148.910038,901.380682,94.95
1269, 15:14:05,66.240846,148.264205,899.985795,94.95
1270, 15:14:05,66.0247,147.384233,896.90483,94.95
1271, 15:14:05,65.77111,146.546283,893.726562,94.95
1272, 15:14:05,65.801649,146.538471,894.566051,94.95
1273, 15:14:05,66.018269,147.282552,897.607244,94.95
1274, 15:14:05,66.143111,147.803385,899.252131,94.95
1275, 15:14:05,66.168087,147.955966,899.352273,94.95
1276, 15:14:05,66.216146,148.146544,900.336648,94.95
1277, 15:14:05,66.318932,148.489465,901.638494,94.95
1278, 15:14:05,66.469026,149.078007,904.215199,94.95
1279, 15:14:05,66.644965,149.744081,906.06392,94.95
1280, 15:14:05,66.773359,150.302083,908.536932,94.95
1281, 15:14:05,66.946378,150.975497,910.384233,94.95
1282, 15:14:05,67.064986,151.57848,911.43679,94.95
1283, 15:14:05,67.149858,152.054214,912.71733,94.95
1284, 15:14:05,67.291943,152.635772,914.825994,94.95
1285, 15:14:05,67.406092,153.15483,916.03125,94.95
1286, 15:14:05,67.542771,153.814394,918.90625,94.95
1287, 15:14:05,67.683791,154.411695,919.663352,94.95
1288, 15:14:05,67.848564,155.110085,922.870739,94.95
1289, 15:14:05,68.01602,155.903172,924.995739,94.95
1290, 15:14:06,68.124527,156.508523,927.227273,94.95
1291, 15:14:06,68.255919,157.118134,929.234375,94.95
1292, 15:14:06,68.349866,157.626776,930.647017,94.95
1293, 15:14:06,68.482126,158.283499,932.053267,94.95
1294, 15:14:06,68.622909,158.904711,934.402699,94.95
1295, 15:14:06,68.776476,159.606416,936.882812,94.95
1296, 15:14:06,68.731495,159.576586,935.899858,94.95
1297, 15:14:06,68.005011,156.761719,924.882812,94.95
1298, 15:14:06,67.069918,152.725379,912.363636,94.95
1299, 15:14:06,66.58069,150.229759,905.074574,94.95
1300, 15:14:06,66.403804,149.374763,902.651989,94.95
1301, 15:14:06,66.339765,149.012666,901.664062,94.95
1302, 15:14:06,66.16063,148.348366,899.777699,94.95
1303, 15:14:06,66.110361,147.966027,898.301847,94.95
1304, 15:14:06,66.214173,148.298769,900.960227,94.95
1305, 15:14:06,66.380603,148.958097,903.416193,94.95
1306, 15:14:06,66.41714,149.218277,903.107955,94.95
1307, 15:14:06,66.429411,149.208688,903.03054,94.95
1308, 15:14:06,66.447996,149.327888,903.495739,94.95
1309, 15:14:06,66.567077,149.730114,905.372159,94.95
1310, 15:14:06,66.736466,150.412997,907.972301,94.95
1311, 15:14:06,66.942116,151.173887,910.651278,94.95
1312, 15:14:06,67.10902,151.938802,912.68679,94.95
1313, 15:14:06,67.26673,152.599432,914.931818,94.95
1314, 15:14:06,67.373224,153.20206,916.433949,94.95
1315, 15:14:06,67.492977,153.664536,918.299716,94.95
1316, 15:14:06,67.584596,154.120265,919.650568,94.95
1317, 15:14:06,67.710227,154.778883,921.105114,94.95
1318, 15:14:06,67.878906,155.354048,923.902699,94.95
1319, 15:14:06,67.995226,155.980469,925.226562,94.95
1320, 15:14:07,68.142716,156.611387,928.145597,94.95
1321, 15:14:07,68.255485,157.311435,929.15554,94.95
1322, 15:14:07,68.412405,158.002841,932.235795,94.95
1323, 15:14:07,68.551215,158.625237,933.921875,94.95
1324, 15:14:07,68.440933,158.276397,931.672585,94.95
1325, 15:14:07,67.679885,155.16276,920.357244,94.95
1326, 15:14:07,66.783183,151.34955,908.509233,94.95
1327, 15:14:07,66.379301,149.28563,901.909801,94.95
1328, 15:14:07,66.269689,148.612098,901.257812,94.95
1329, 15:14:07,66.187579,148.242661,899.538352,94.95
1330, 15:14:07,66.046875,147.708807,897.78125,94.95
1331, 15:14:07,66.025016,147.587831,897.723011,94.95
1332, 15:14:07,66.225537,148.205492,900.923295,94.95
1333, 15:14:07,66.349866,148.806226,902.465199,94.95
1334, 15:14:07,66.375316,148.925189,902.673295,94.95
1335, 15:14:07,66.395399,148.918679,903.105824,94.95
1336, 15:14:07,66.444129,149.063447,903.724432,94.95
1337, 15:14:07,66.579822,149.643821,905.504972,94.95
1338, 15:14:07,66.787682,150.360677,908.879972,94.95
1339, 15:14:07,66.965791,151.066406,911.264915,94.95
1340, 15:14:07,67.116122,151.685488,913.368608,94.95
1341, 15:14:07,67.262626,152.286932,915.463068,94.95
1342, 15:14:07,67.364583,152.612689,916.522727,94.95
1343, 15:14:07,67.431108,153.002604,916.666193,94.95
1344, 15:14:07,67.534604,153.400213,918.40696,94.95
1345, 15:14:07,67.642243,153.975497,919.583097,94.95
1346, 15:14:07,67.755958,154.416075,921.189631,94.95
1347, 15:14:07,67.946812,155.161932,924.670455,94.95
1348, 15:14:07,68.052004,155.798532,926.507102,94.95
1349, 15:14:07,68.221551,156.592685,928.394176,94.95
1350, 15:14:08,68.375039,157.319721,931.418324,95.2
1351, 15:14:08,68.162879,156.602273,927.159091,95.2
1352, 15:14:08,67.265546,152.810843,914.453125,95.2
1353, 15:14:08,66.400687,149.095999,902.198153,95.2
1354, 15:14:08,66.001144,147.269531,897.060369,95.2
1355, 15:14:08,65.818419,146.505445,894.009943,95.2
1356, 15:14:08,65.724511,146.029593,892.691761,95.2
1357, 15:14:08,65.509785,145.27983,890.326705,95.2
1358, 15:14:08,65.455453,145.00509,889.84304,95.2
1359, 15:14:08,65.675821,145.609848,892.710227,95.2
1360, 15:14:08,65.868884,146.387429,896.120028,95.2
1361, 15:14:08,65.963147,146.763494,897.098011,95.2
1362, 15:14:08,65.990136,146.834517,897.421875,95.2
1363, 15:14:08,66.046165,147.052794,897.78267,95.2
1364, 15:14:08,66.147096,147.501894,899.488636,95.2
1365, 15:14:08,66.346512,148.229877,902.149148,95.2
1366, 15:14:08,66.526515,148.909091,904.588068,95.2
1367, 15:14:08,66.711293,149.606889,907.291903,95.2
1368, 15:14:08,66.861229,150.19259,908.740767,95.2
1369, 15:14:08,66.955177,150.618371,910.454545,95.2
1370, 15:14:08,67.119989,151.268584,912.506392,95.2
1371, 15:14:08,67.270754,151.819366,914.276989,95.2
1372, 15:14:08,67.432528,152.441998,916.612216,95.2
1373, 15:14:08,67.610006,153.125,919.198864,95.2
1374, 15:14:08,67.779632,153.872988,920.769176,95.2
1375, 15:14:08,67.929451,154.647254,923.230114,95.2
1376, 15:14:08,68.07051,155.260298,925.422585,95.2
1377, 15:14:08,68.188842,155.846828,926.680398,95.2
1378, 15:14:08,68.307489,156.385535,928.114347,95.2
1379, 15:14:08,68.460425,157.066406,930.395597,95.2
1380, 15:14:09,68.622277,157.81759,933.368608,95.2
1381, 15:14:09,68.717685,158.355705,933.764915,95.2
1382, 15:14:09,68.189157,156.55232,927.069602,95.2
1383, 15:14:09,67.257023,152.478456,912.839489,95.2
1384, 15:14:09,66.591501,149.493726,903.803267,95.2
1385, 15:14:09,66.319089,148.321851,899.769176,95.2
1386, 15:14:09,66.206203,147.809422,898.762784,95.2
1387, 15:14:09,66.033933,147.076231,896.053977,95.2
1388, 15:14:09,65.83795,146.34008,893.966619,95.2
1389, 15:14:09,65.859493,146.319484,893.90554,95.2
1390, 15:14:09,66.080256,147.069839,897.46733,95.2
1391, 15:14:09,66.276239,147.817827,900.193892,95.2
1392, 15:14:09,66.325284,148.077178,900.517045,95.2
1393, 15:14:09,66.369792,148.275568,900.897727,95.2
1394, 15:14:09,66.432844,148.560369,901.754261,95.2
1395, 15:14:09,66.575363,149.177794,903.106534,95.2
1396, 15:14:09,66.767716,149.830611,906.338778,95.2
1397, 15:14:09,66.906289,150.498698,908.009233,95.2
1398, 15:14:09,67.096512,151.111979,910.367898,95.2
1399, 15:14:09,67.23035,151.712358,912.649148,95.2
1400, 15:14:09,67.38664,152.337003,914.198153,95.2
1401, 15:14:09,67.534407,152.872159,915.872159,95.2
1402, 15:14:09,67.668797,153.531487,918.120739,95.2
1403, 15:14:09,67.799676,154.21295,919.902699,95.2
1404, 15:14:09,67.947128,154.980114,922.434659,95.2
1405, 15:14:09,68.109533,155.984848,924.6875,95.2
1406, 15:14:09,68.282631,156.683594,927.308949,95.2
1407, 15:14:09,68.437579,157.467566,929.274148,95.2
1408, 15:14:09,68.57923,158.231061,932.127841,95.2
1409, 15:14:09,68.728969,158.976681,934.306108,95.2
1410, 15:14:10,68.879932,159.764796,936.347301,95.225
1411, 15:14:10,69.040878,160.555398,938.556818,95.225
1412, 15:14:10,69.156802,161.203362,940.06392,95.225
1413, 15:14:10,69.188408,161.597893,940.149858,95.225
1414, 15:14:10,68.67444,159.690933,932.679688,95.225
1415, 15:14:10,67.860125,156.207268,921.510653,95.225
1416, 15:14:10,67.379695,153.873935,914.010653,95.225
1417, 15:14:10,67.207702,152.959754,911.957386,95.225
1418, 15:14:10,67.14532,152.506984,910.607244,95.225
1419, 15:14:10,67.024384,151.753551,908.56392,95.225
1420, 15:14:10,66.891888,151.141572,906.545455,95.225
1421, 15:14:10,66.958452,151.413234,907.516335,95.225
1422, 15:14:10,67.128985,151.976444,911.429688,95.225
1423, 15:14:10,67.194405,152.337476,911.399858,95.225
1424, 15:14:10,67.226562,152.443892,911.90767,95.225
1425, 15:14:10,67.217882,152.660275,912.22017,95.225
1426, 15:14:10,67.317787,153.016809,913.234375,95.225
1427, 15:14:10,67.479837,153.562618,915.554688,95.225
1428, 15:14:10,67.602549,154.277817,918.254972,95.225
1429, 15:14:10,67.744871,155.0741,919.566761,95.225
1430, 15:14:10,67.890033,155.683357,922.276278,95.225
1431, 15:14:10,68.036971,156.305516,923.898438,95.225
1432, 15:14:10,68.115885,156.76527,924.779119,95.225
1433, 15:14:10,68.210188,157.385298,927.095881,95.225
1434, 15:14:10,68.348248,157.89465,928.245739,95.225
1435, 15:14:10,68.457189,158.53492,929.979403,95.225
1436, 15:14:10,68.597459,159.186316,932.617898,95.225
1437, 15:14:10,68.718868,159.69259,934.334517,95.225
1438, 15:14:10,68.824337,160.280303,936.173295,95.225
1439, 15:14:10,68.946062,160.913471,937.441051,95.225
1440, 15:14:11,69.087476,161.537997,939.534801,95.2
1441, 15:14:11,69.231337,162.274029,942.254972,95.2
1442, 15:14:11,69.239386,162.481889,942.053267,95.2
1443, 15:14:11,68.700205,160.438684,933.680398,95.2
1444, 15:14:11,67.951389,157.120265,921.900568,95.2
1445, 15:14:11,67.503788,154.833807,915.795455,95.2
1446, 15:14:11,67.320589,153.82777,913.415483,95.2
1447, 15:14:11,67.225971,153.211056,912.215199,95.2
1448, 15:14:11,67.07047,152.414062,909.933239,95.2
1449, 15:14:11,66.9753,151.904119,908.396307,95.2
1450, 15:14:11,67.07193,152.140033,910.544744,95.2
1451, 15:14:11,67.16714,152.516572,911.775568,95.2
1452, 15:14:11,67.174755,152.633641,912.25071,95.2
1453, 15:14:11,67.167456,152.556345,911.051136,95.2
1454, 15:14:11,67.149779,152.55303,911.542614,95.2
1455, 15:14:11,67.209359,152.779593,912.004261,95.2
1456, 15:14:11,67.323114,153.30599,914.071733,95.2
1457, 15:14:11,67.457663,153.898556,916.070312,95.2
1458, 15:14:11,67.635377,154.566643,918.791903,95.2
1459, 15:14:11,67.73477,155.1134,919.882102,95.2
1460, 15:14:11,67.82919,155.549598,921.294744,95.2
1461, 15:14:11,67.915365,156.005563,922.791903,95.2
1462, 15:14:11,68.016888,156.525568,923.818182,95.2
1463, 15:14:11,68.140191,157.061198,925.600142,95.2
1464, 15:14:11,68.292416,157.594105,928.110085,95.2
1465, 15:14:11,68.384391,158.210938,929.458807,95.2
1466, 15:14:11,68.536301,158.929924,931.951705,95.2
1467, 15:14:11,68.662405,159.44839,933.369318,95.2
1468, 15:14:11,68.535748,159.097775,931.703125,95.2
1469, 15:14:11,67.834951,156.219342,921.566051,95.2
1470, 15:14:12,67.081321,152.739228,910.049006,95.2
1471, 15:14:12,66.651594,150.604403,903.850852,95.2
1472, 15:14:12,66.410511,149.461174,900.835227,95.2
1473, 15:14:12,66.209359,148.505919,897.578125,95.2
1474, 15:14:12,65.962831,147.522964,894.71733,95.2
1475, 15:14:12,65.862058,147.169508,893.372159,95.2
1476, 15:14:12,66.035511,147.661458,896.201705,95.2
1477, 15:14:12,66.140112,148.057173,897.345881,95.2
1478, 15:14:12,66.155342,148.142164,898.18821,95.2
1479, 15:14:12,66.138297,148.09813,897.699574,95.2
1480, 15:14:12,66.149148,148.097538,898.335227,95.2
1481, 15:14:12,66.253985,148.518111,899.753551,95.2
1482, 15:14:12,66.421323,149.089252,902.742898,95.2
1483, 15:14:12,66.573232,149.702652,904.15625,95.2
1484, 15:14:12,66.701823,150.250829,905.661222,95.2
1485, 15:14:12,66.861585,150.784091,907.335227,95.2
1486, 15:14:12,66.978969,151.212003,909.362926,95.2
1487, 15:14:12,67.075955,151.724077,910.997869,95.2
1488, 15:14:12,67.154474,152.23473,911.84304,95.2
1489, 15:14:12,67.312224,152.720289,913.818892,95.2
1490, 15:14:12,67.442038,153.306226,915.732244,95.2
1491, 15:14:12,67.560646,153.912997,917.529119,95.2
1492, 15:14:12,67.704072,154.458807,919.357955,95.2
1493, 15:14:12,67.819405,155.084635,921.388494,95.2
1494, 15:14:12,67.954782,155.733665,923.115057,95.2
1495, 15:14:12,68.063723,156.42223,925.442472,95.2
1496, 15:14:12,67.938881,156.085109,923.533381,95.2
1497, 15:14:12,67.169468,152.937382,910.661222,95.2
1498, 15:14:12,66.382063,149.416075,900.161222,95.2
1499, 15:14:12,65.955137,147.460109,894.004972,95.2
1500, 15:14:13,65.743016,146.539654,892.098722,95.225
1501, 15:14:13,65.520241,145.687618,887.776278,95.225
1502, 15:14:13,65.264639,144.696851,884.502131,95.225
1503, 15:14:13,65.140625,144.230114,883.241477,95.225
1504, 15:14:13,65.3125,144.771307,885.65625,95.225
1505, 15:14:13,65.541943,145.551018,888.777699,95.225
1506, 15:14:13,65.604443,145.854995,890.337358,95.225
1507, 15:14:13,65.65483,146.014678,890.443182,95.225
1508, 15:14:13,65.71658,146.283262,891.287642,95.225
1509, 15:14:13,65.866714,146.841619,893.455966,95.225
1510, 15:14:13,66.018111,147.51598,895.851562,95.225
1511, 15:14:13,66.213976,148.230469,897.860085,95.225
1512, 15:14:13,66.399463,148.878314,900.747159,95.225
1513, 15:14:13,66.556897,149.624763,902.745739,95.225
1514, 15:14:13,66.702612,150.203007,904.965199,95.225
1515, 15:14:13,66.861269,150.893466,906.588068,95.225
1516, 15:14:13,67.011877,151.526634,908.551847,95.225
1517, 15:14:13,67.208531,152.24349,910.580256,95.225
1518, 15:14:13,67.333886,152.934422,913.328125,95.225
1519, 15:14:13,67.448864,153.659564,913.90625,95.225
1520, 15:14:13,67.64678,154.446023,917.417614,95.225
1521, 15:14:13,67.760259,155.212121,918.852273,95.225
1522, 15:14:13,67.946496,155.986742,922.039773,95.225
1523, 15:14:13,68.072956,156.609493,923.739347,95.225
1524, 15:14:13,68.192314,157.220407,925.40483,95.225
1525, 15:14:13,68.342724,157.855824,927.973011,95.225
1526, 15:14:13,68.473288,158.603575,930.345881,95.225
1527, 15:14:13,68.625039,159.343395,931.770597,95.225
1528, 15:14:13,68.56542,159.3634,931.615057,95.225
1529, 15:14:13,67.904672,156.825758,920.866477,95.225
1530, 15:14:14,67.141296,153.553622,910.415483,95.225
1531, 15:14:14,66.730745,151.534564,904.136364,95.225
1532, 15:14:14,66.567985,150.575639,901.834517,95.225
1533, 15:14:14,66.394689,149.689276,899.328835,95.225
1534, 15:14:14,66.146188,148.782789,896.679688,95.225
1535, 15:14:14,65.995107,148.112689,893.423295,95.225
1536, 15:14:14,66.068813,148.369318,895.25,95.225
1537, 15:14:14,66.271544,149.047585,898.484375,95.225
1538, 15:14:14,66.316209,149.349195,899.21733,95.225
1539, 15:14:14,66.364978,149.523911,899.37358,95.225
1540, 15:14:14,66.390743,149.682647,899.897017,95.225
1541, 15:14:14,66.495265,150.012784,901.221591,95.225
1542, 15:14:14,66.617109,150.664299,903.980114,95.225
1543, 15:14:14,66.745028,151.246922,905.225852,95.225
1544, 15:14:14,66.901555,151.994437,907.867188,95.225
1545, 15:14:14,67.034012,152.658854,909.524148,95.225
1546, 15:14:14,67.165128,153.270478,911.489347,95.225
1547, 15:14:14,67.277107,153.87867,913.183949,95.225
1548, 15:14:14,67.422388,154.451823,915.350142,95.225
1549, 15:14:14,67.524187,155.041785,916.62571,95.225
1550, 15:14:14,67.652778,155.689867,918.071023,95.225
1551, 15:14:14,67.809304,156.39098,920.141335,95.225
1552, 15:14:14,67.930477,157.017282,922.62642,95.225
1553, 15:14:14,68.073785,157.643229,924.208807,95.225
1554, 15:14:14,68.166667,158.209754,926.306818,95.225
1555, 15:14:14,68.292219,158.763021,927.961648,95.225
1556, 15:14:14,68.424874,159.349432,930.659091,95.225
1557, 15:14:14,68.544271,160.084044,931.785511,95.225
1558, 15:14:14,68.654356,160.670928,933.826705,95.225
1559, 15:14:14,68.41351,159.732481,929.338068,95.225
1560, 15:14:15,67.660393,156.729285,919.310369,95.2
1561, 15:14:15,67.041548,153.907315,909.378551,95.2
1562, 15:14:15,66.757221,152.435014,906.095881,95.2
1563, 15:14:15,66.634904,151.689276,903.888494,95.2
1564, 15:14:15,66.504735,150.859848,902.321023,95.2
1565, 15:14:15,66.299874,149.950284,898.025568,95.2
1566, 15:14:15,66.285827,149.867424,898.894886,95.2
1567, 15:14:15,66.410196,150.253314,901.411932,95.2
1568, 15:14:15,66.465041,150.443419,902.18892,95.2
1569, 15:14:15,66.427241,150.47822,901.605114,95.2
1570, 15:14:15,66.430713,150.435606,901.852273,95.2
1571, 15:14:15,66.467764,150.50509,901.942472,95.2
1572, 15:14:15,66.581321,150.89974,904.384233,95.2
1573, 15:14:15,66.718987,151.442472,905.74858,95.2
1574, 15:14:15,66.835898,151.969342,907.642756,95.2
1575, 15:14:15,66.92444,152.52616,909.066051,95.2
1576, 15:14:15,67.022767,152.901634,909.943892,95.2
1577, 15:14:15,67.135693,153.368726,911.002131,95.2
1578, 15:14:15,67.222577,153.680043,912.958097,95.2
1579, 15:14:15,67.329703,154.191288,913.363636,95.2
1580, 15:14:15,67.413984,154.672348,916.332386,95.2
1581, 15:14:15,67.506076,155.209991,916.203125,95.2
1582, 15:14:15,67.664773,155.82339,919.068182,95.2
1583, 15:14:15,67.78997,156.389796,920.733665,95.2
1584, 15:14:15,67.933436,157.002959,923.745028,95.2
1585, 15:14:15,67.895202,157.07339,922.53125,95.2
1586, 15:14:15,67.391888,155.018466,915.224432,95.2
1587, 15:14:15,66.624014,151.664181,903.942472,95.2
1588, 15:14:15,66.143111,149.17081,896.931108,95.2
1589, 15:14:15,65.915443,148.074929,893.381392,95.2
1590, 15:14:16,65.73185,147.111269,891.420455,95.2
1591, 15:14:16,65.481337,146.055279,887.794744,95.2
1592, 15:14:16,65.343079,145.459162,886.291903,95.2
1593, 15:14:16,65.424755,145.725024,888.049006,95.2
1594, 15:14:16,65.601918,146.325639,890.897017,95.2
1595, 15:14:16,65.638376,146.509825,891.115767,95.2
1596, 15:14:16,65.635417,146.533144,891.207386,95.2
1597, 15:14:16,65.638336,146.56321,891.038352,95.2
1598, 15:14:16,65.735993,146.94188,892.381392,95.2
1599, 15:14:16,65.879853,147.44117,894.152699,95.2
1600, 15:14:16,66.025884,148.088542,897.232955,95.2
1601, 15:14:16,66.218434,148.701231,899.088068,95.2
1602, 15:14:16,66.326152,149.319839,901.384943,95.2
1603, 15:14:16,66.452296,149.823272,901.769176,95.2
1604, 15:14:16,66.577652,150.376894,903.886364,95.2
1605, 15:14:16,66.698627,150.888494,905.566761,95.2
1606, 15:14:16,66.829782,151.459044,907.583807,95.2
1607, 15:14:16,66.981455,151.926847,909.697443,95.2
1608, 15:14:16,67.095683,152.611861,912.034801,95.2
1609, 15:14:16,67.226286,153.184541,913.604403,95.2
1610, 15:14:16,67.33578,153.839252,915.632102,95.2
1611, 15:14:16,67.509904,154.493253,917.527699,95.2
1612, 15:14:16,67.609059,155.008996,918.596591,95.2
1613, 15:14:16,67.444089,154.363991,915.814631,95.2
1614, 15:14:16,66.567629,150.907434,904.34517,95.2
1615, 15:14:16,65.734927,147.249763,892.055398,95.2
1616, 15:14:16,65.297427,145.192472,885.87642,95.2
1617, 15:14:16,65.06325,144.182647,881.914062,95.2
1618, 15:14:16,64.85464,143.310606,879.9375,95.2
1619, 15:14:16,64.621173,142.33795,877.039062,95.2
1620, 15:14:17,64.498106,141.840909,875.252841,95.225
1621, 15:14:17,64.603693,142.231061,877.232955,95.225
1622, 15:14:17,64.806858,142.923414,880.151278,95.225
1623, 15:14:17,64.838936,143.205256,880.291193,95.225
1624, 15:14:17,64.872435,143.310014,880.882812,95.225
1625, 15:14:17,64.949732,143.516335,882.024148,95.225
1626, 15:14:17,65.08866,143.970052,884.621449,95.225
1627, 15:14:17,65.257891,144.61553,886.576705,95.225
1628, 15:14:17,65.433633,145.331676,889.62642,95.225
1629, 15:14:17,65.612571,145.985914,891.020597,95.225
1630, 15:14:17,65.758641,146.602154,893.672585,95.225
1631, 15:14:17,65.910038,147.221117,895.286932,95.225
1632, 15:14:17,66.017322,147.73331,896.823153,95.225
1633, 15:14:17,66.161537,148.28196,898.87642,95.225
1634, 15:14:17,66.322483,148.80741,901.415483,95.225
1635, 15:14:17,66.469736,149.423414,902.634233,95.225
1636, 15:14:17,66.626697,150.012666,904.547585,95.225
1637, 15:14:17,66.779751,150.679688,907.080966,95.225
1638, 15:14:17,66.933199,151.359257,909.706676,95.225
1639, 15:14:17,67.068497,152.035511,910.954545,95.225
1640, 15:14:17,67.213344,152.612098,913.340199,95.225
1641, 15:14:17,67.286695,153.245502,914.356534,95.225
1642, 15:14:17,67.430911,153.852391,916.654119,95.225
1643, 15:14:17,67.540799,154.576468,918.330966,95.225
1644, 15:14:17,67.728693,155.144886,921.332386,95.225
1645, 15:14:17,67.521425,154.59742,917.789062,95.225
1646, 15:14:17,66.566012,150.708452,904.389915,95.225
1647, 15:14:17,65.623895,146.757576,890.696023,95.225
1648, 15:14:17,65.153133,144.609967,884.62571,95.225
1649, 15:14:17,64.978575,143.769058,881.165483,95.225
1650, 15:14:18,64.794074,143.077296,879.78196,95.475
1651, 15:14:18,64.592053,142.207031,876.983665,95.475
1652, 15:14:18,64.455295,141.726681,875.365767,95.475
1653, 15:14:18,64.572483,142.084872,876.631392,95.475
1654, 15:14:18,64.769807,142.787169,879.916193,95.475
1655, 15:14:18,64.858033,143.14607,881.004261,95.475
1656, 15:14:18,64.89098,143.28563,881.395597,95.475
1657, 15:14:18,64.930595,143.49491,882.432528,95.475
1658, 15:14:18,65.057213,144.076468,884.180398,95.475
1659, 15:14:18,65.245423,144.709754,887.247159,95.475
1660, 15:14:18,65.453559,145.434067,890.260653,95.475
1661, 15:14:18,65.61486,146.21295,892.40554,95.475
1662, 15:14:18,65.819839,146.933949,895.089489,95.475
1663, 15:14:18,65.977115,147.555871,896.806818,95.475
1664, 15:14:18,66.096788,148.117069,898.59446,95.475
1665, 15:14:18,66.243687,148.675189,900.448864,95.475
1666, 15:14:18,66.420218,149.361979,903.490057,95.475
1667, 15:14:18,66.575521,150.058949,904.526989,95.475
1668, 15:14:18,66.758247,150.806937,908.054688,95.475
1669, 15:14:18,66.910788,151.483783,909.754972,95.475
1670, 15:14:18,67.084557,152.215317,911.956676,95.475
1671, 15:14:18,67.227273,152.99858,914.355114,95.475
1672, 15:14:18,67.374369,153.689867,916.426136,95.475
1673, 15:14:18,67.545533,154.520597,918.234375,95.475
1674, 15:14:18,67.678622,155.238991,920.692472,95.475
1675, 15:14:18,67.788628,155.697798,922.232244,95.475
1676, 15:14:18,67.252328,153.634825,914.629972,95.475
1677, 15:14:18,66.260338,149.442472,900.106534,95.475
1678, 15:14:18,65.566604,146.345644,890.355114,95.475
1679, 15:14:18,65.303228,145.220289,886.514915,95.475
1680, 15:14:19,65.241951,144.97964,886.372159,95.475
1681, 15:14:19,65.150213,144.555279,885.050426,95.475
1682, 15:14:19,65.056068,144.093868,884.148438,95.475
1683, 15:14:19,65.133286,144.381866,884.759943,95.475
1684, 15:14:19,65.335859,145.161932,888.417614,95.475
1685, 15:14:19,65.450915,145.570076,889.517045,95.475
1686, 15:14:19,65.469026,145.653764,890.368608,95.475
1687, 15:14:19,65.545218,146.014915,891.100852,95.475
1688, 15:14:19,65.852391,147.16276,895.720881,95.475
1689, 15:14:19,66.186119,148.47455,899.713778,95.475
1690, 15:14:19,66.469223,149.472538,903.721591,95.475
1691, 15:14:19,66.665246,150.377367,906.505682,95.475
1692, 15:14:19,66.830335,150.997159,909.173295,95.475
1693, 15:14:19,66.951428,151.517164,910.483665,95.475
1694, 15:14:19,67.056621,151.992779,912.172585,95.475
1695, 15:14:19,67.177872,152.52178,912.653409,95.475
1696, 15:14:19,67.438486,153.696141,917.148438,95.475
1697, 15:14:19,67.679411,154.795336,920.21804,95.475
1698, 15:14:19,67.844618,155.54143,922.93608,95.475
1699, 15:14:19,67.989307,156.205137,925.023438,95.475
1700, 15:14:19,68.100339,156.728575,926.911222,95.475
1701, 15:14:19,68.172585,157.1366,927.53267,95.475
1702, 15:14:19,67.627249,155.11044,919.779119,95.475
1703, 15:14:19,66.704861,151.087121,905.903409,95.475
1704, 15:14:19,66.145399,148.370857,897.674006,95.475
1705, 15:14:19,65.919034,147.324337,895.0625,95.475
1706, 15:14:19,65.884351,147.218395,894.997869,95.475
1707, 15:14:19,65.810172,146.905895,893.872869,95.475
1708, 15:14:19,65.765704,146.686316,893.674716,95.475
1709, 15:14:19,65.908183,147.118016,895.276278,95.475
1710, 15:14:20,66.103812,147.783499,898.644176,95.475
1711, 15:14:20,66.164773,148.056345,898.835227,95.475
1712, 15:14:20,66.172033,148.049716,899.008523,95.475
1713, 15:14:20,66.225734,148.285156,899.497869,95.475
1714, 15:14:20,66.397609,148.819721,902.477983,95.475
1715, 15:14:20,66.614386,149.677912,904.970881,95.475
1716, 15:14:20,66.812895,150.517282,908.06392,95.475
1717, 15:14:20,66.999448,151.240767,910.515625,95.475
1718, 15:14:20,67.150765,151.863281,912.591619,95.475
1719, 15:14:20,67.253433,152.300071,913.627131,95.475
1720, 15:14:20,67.376184,152.894176,916.31108,95.475
1721, 15:14:20,67.515546,153.456676,916.901989,95.475
1722, 15:14:20,67.593868,154.064276,919.075994,95.475
1723, 15:14:20,67.755248,154.659683,921.026278,95.475
1724, 15:14:20,67.929688,155.258759,924.12358,95.475
1725, 15:14:20,68.066051,155.999763,925.134943,95.475
1726, 15:14:20,68.221275,156.629735,928.085227,95.475
1727, 15:14:20,68.067077,156.293561,925.522727,95.475
1728, 15:14:20,67.202415,152.590199,911.887784,95.475
1729, 15:14:20,66.214883,148.494555,899.137784,95.475
1730, 15:14:20,65.709399,146.214844,891.902699,95.475
1731, 15:14:20,65.547072,145.453717,889.727983,95.475
1732, 15:14:20,65.433199,145.005563,888.783381,95.475
1733, 15:14:20,65.288668,144.401515,885.971591,95.475
1734, 15:14:20,65.215199,144.079309,885.379261,95.475
1735, 15:14:20,65.413194,144.723958,889.113636,95.475
1736, 15:14:20,65.631747,145.588897,891.769176,95.475
1737, 15:14:20,65.763613,146.052675,893.557528,95.475
1738, 15:14:20,65.827849,146.298887,894.537642,95.475
1739, 15:14:20,65.933909,146.600971,895.239347,95.475
1740, 15:14:21,66.127801,147.299598,898.004972,95.475
1741, 15:14:21,66.329309,148.170218,900.964489,95.475
1742, 15:14:21,66.553504,149.008523,904.394886,95.475
1743, 15:14:21,66.756392,149.804688,907.228693,95.475
1744, 15:14:21,66.943892,150.565104,909.512784,95.475
1745, 15:14:21,67.066604,151.067235,910.673295,95.475
1746, 15:14:21,67.236348,151.693419,913.18892,95.475
1747, 15:14:21,67.371488,152.229522,915.595881,95.475
1748, 15:14:21,67.549558,152.982008,917.977273,95.475
1749, 15:14:21,67.759115,153.835582,920.377131,95.475
1750, 15:14:21,67.940617,154.669389,922.985085,95.475
1751, 15:14:21,68.136048,155.396307,924.525568,95.475
1752, 15:14:21,68.290562,156.107481,927.946023,95.475
1753, 15:14:21,68.419389,156.856652,929.577415,95.475
1754, 15:14:21,68.585109,157.563092,931.872869,95.475
1755, 15:14:21,68.729719,158.433002,934.177557,95.475
1756, 15:14:21,68.747554,158.653172,934.853693,95.475
1757, 15:14:21,68.097025,155.960109,923.90554,95.475
1758, 15:14:21,67.034998,151.28492,909.87429,95.475
1759, 15:14:21,66.303938,148.248461,899.891335,95.475
1760, 15:14:21,66.055595,147.038471,896.262074,95.475
1761, 15:14:21,65.911656,146.452296,894.43821,95.475
1762, 15:14:21,65.732165,145.740057,892.491477,95.475
1763, 15:14:21,65.549558,145.070549,889.642045,95.475
1764, 15:14:21,65.632221,145.356416,891.397017,95.475
1765, 15:14:21,65.905185,146.278527,895.614347,95.475
1766, 15:14:21,66.107481,147.031723,898.767045,95.475
1767, 15:14:21,66.147846,147.389086,897.78054,95.475
1768, 15:14:21,66.210543,147.566761,899.369318,95.475
1769, 15:14:21,66.401002,148.165128,901.783381,95.475
1770, 15:14:22,66.568616,148.849313,904.774858,95.45
1771, 15:14:22,66.790009,149.620975,907.245739,95.45
1772, 15:14:22,66.989149,150.358546,909.924006,95.45
1773, 15:14:22,67.188605,151.149148,912.420455,95.45
1774, 15:14:22,67.345881,151.799953,914.882102,95.45
1775, 15:14:22,67.495068,152.399976,916.016335,95.45
1776, 15:14:22,67.64753,152.990885,919.098722,95.45
1777, 15:14:22,67.771662,153.541312,920.537642,95.45
1778, 15:14:22,67.955966,154.285038,923.292614,95.45
1779, 15:14:22,68.118332,154.96437,924.192472,95.45
1780, 15:14:22,68.305516,155.785393,927.757812,95.45
1781, 15:14:22,68.446299,156.463897,929.408381,95.45
1782, 15:14:22,68.591817,157.055753,931.416903,95.45
1783, 15:14:22,68.681581,157.548532,932.634943,95.45
1784, 15:14:22,68.824692,158.289418,935.296165,95.45
1785, 15:14:22,68.997554,158.972775,937.169034,95.45
1786, 15:14:22,69.194602,159.827652,939.994318,95.45
1787, 15:14:22,69.040365,159.543442,937.806108,95.45
1788, 15:14:22,68.13372,155.538944,924.509233,95.45
1789, 15:14:22,67.092882,151.192945,909.774148,95.45
1790, 15:14:22,66.511837,148.724432,902.758523,95.45
1791, 15:14:22,66.367819,147.979403,900.606534,95.45
1792, 15:14:22,66.283104,147.694484,899.46804,95.45
1793, 15:14:22,66.151515,147.155777,897.295455,95.45
1794, 15:14:22,66.108191,146.934422,897.65483,95.45
1795, 15:14:22,66.287366,147.535393,900.004972,95.45
1796, 15:14:22,66.496015,148.348366,903.31179,95.45
1797, 15:14:22,66.552004,148.567945,903.492898,95.45
1798, 15:14:22,66.543876,148.535511,903.923295,95.45
1799, 15:14:22,66.57197,148.697443,904.076705,95.45
1800, 15:14:23,66.723524,149.279948,906.821733,95.45
1801, 15:14:23,66.947404,150.009825,908.90554,95.45
1802, 15:14:23,67.154751,150.787169,912.68892,95.45
1803, 15:14:23,67.32923,151.470644,914.221591,95.45
1804, 15:14:23,67.490175,152.101207,916.127131,95.45
1805, 15:14:23,67.639402,152.828243,918.421165,95.45
1806, 15:14:23,67.775726,153.350379,920.818182,95.45
1807, 15:14:23,67.912326,153.858191,922.120739,95.45
1808, 15:14:23,68.050426,154.368134,923.822443,95.45
1809, 15:14:23,68.181068,154.929096,925.145597,95.45
1810, 15:14:23,68.332623,155.522964,928.149148,95.45
1811, 15:14:23,68.486821,156.172112,929.78267,95.45
1812, 15:14:23,68.643624,156.897727,932.215909,95.45
1813, 15:14:23,68.73402,157.362098,932.794744,95.45
1814, 15:14:23,68.273595,155.702415,925.705966,95.45
1815, 15:14:23,67.248185,151.525331,912.058239,95.45
1816, 15:14:23,66.467685,148.36849,902.727983,95.45
1817, 15:14:23,66.178267,147.101562,897.839489,95.45
1818, 15:14:23,66.097577,146.753433,897.335938,95.45
1819, 15:14:23,66.024345,146.44188,896.253551,95.45
1820, 15:14:23,65.930279,146.073982,894.807528,95.45
1821, 15:14:23,66.044705,146.401634,896.952415,95.45
1822, 15:14:23,66.287839,147.213897,900.198153,95.45
1823, 15:14:23,66.410393,147.680516,901.912642,95.45
1824, 15:14:23,66.408262,147.749882,902.340199,95.45
1825, 15:14:23,66.439315,147.85393,902.600852,95.45
1826, 15:14:23,66.556937,148.292495,903.769176,95.45
1827, 15:14:23,66.746409,149.018584,906.665483,95.45
1828, 15:14:23,66.96145,149.773082,909.527699,95.45
1829, 15:14:23,67.13952,150.61553,911.446023,95.45
1830, 15:14:24,67.322443,151.274148,914.653409,95.45
1831, 15:14:24,67.454111,151.770005,916.227983,95.45
1832, 15:14:24,67.568734,152.204782,917.947443,95.45
1833, 15:14:24,67.708846,152.790365,919.787642,95.45
1834, 15:14:24,67.824337,153.214962,921.684659,95.45
1835, 15:14:24,67.940933,153.702533,922.715199,95.45
1836, 15:14:24,68.102036,154.356297,924.68608,95.45
1837, 15:14:24,68.274463,155.061553,927.028409,95.45
1838, 15:14:24,68.444366,155.880919,930.12642,95.45
1839, 15:14:24,68.412287,155.685251,928.602983,95.45
1840, 15:14:24,67.527265,152.297704,916.098722,95.45
1841, 15:14:24,66.460503,148.195431,901.550426,95.45
1842, 15:14:24,65.909604,145.833452,894.534801,95.45
1843, 15:14:24,65.788707,145.117069,892.046165,95.45
1844, 15:14:24,65.643348,144.559304,890.583097,95.45
1845, 15:14:24,65.499448,143.933949,888.254261,95.45
1846, 15:14:24,65.42081,143.615649,887.926847,95.45
1847, 15:14:24,65.567314,144.140862,890.15767,95.45
1848, 15:14:24,65.816051,145.037169,893.617898,95.45
1849, 15:14:24,65.915878,145.443182,894.53125,95.45
1850, 15:14:24,65.906802,145.525331,895.12642,95.45
1851, 15:14:24,65.967645,145.804451,895.559659,95.45
1852, 15:14:24,66.086608,146.259351,897.459517,95.45
1853, 15:14:24,66.271583,146.934541,900.502131,95.45
1854, 15:14:24,66.468908,147.710701,903.355114,95.45
1855, 15:14:24,66.624132,148.454309,905.916193,95.45
1856, 15:14:24,66.784604,149.002486,907.716619,95.45
1857, 15:14:24,66.919192,149.594697,909.21875,95.45
1858, 15:14:24,67.052004,150.061316,910.802557,95.45
1859, 15:14:24,67.172901,150.564631,912.25142,95.45
1860, 15:14:25,67.288747,151.154119,914.103693,95.45
1861, 15:14:25,67.461648,151.743371,915.855114,95.45
1862, 15:14:25,67.615412,152.363755,918.176847,95.45
1863, 15:14:25,67.778409,152.994792,920.332386,95.45
1864, 15:14:25,67.92732,153.600616,922.458807,95.45
1865, 15:14:25,68.087674,154.210464,923.84517,95.45
1866, 15:14:25,68.196891,154.718987,925.569602,95.45
1867, 15:14:25,68.338108,155.383641,927.591619,95.45
1868, 15:14:25,68.50363,156.009943,929.909091,95.45
1869, 15:14:25,68.544705,156.264796,930.304688,95.45
1870, 15:14:25,67.849826,153.698153,920.634943,95.45
1871, 15:14:25,66.619871,149.009706,903.660511,95.45
1872, 15:14:25,65.869081,145.815578,893.737216,95.45
1873, 15:14:25,65.581834,144.590672,890.194602,95.45
1874, 15:14:25,65.425979,143.965909,888.142045,95.45
1875, 15:14:25,65.236308,143.103812,884.151278,95.45
1876, 15:14:25,65.046402,142.347538,881.920455,95.45
1877, 15:14:25,65.060922,142.39678,882.366477,95.45
1878, 15:14:25,65.293482,143.175426,886.984375,95.45
1879, 15:14:25,65.462476,143.887902,889.083097,95.45
1880, 15:14:25,65.524148,144.179924,890.025568,95.45
1881, 15:14:25,65.572246,144.386719,890.337358,95.45
1882, 15:14:25,65.668363,144.768821,892.18679,95.45
1883, 15:14:25,65.819523,145.378078,894.24858,95.45
1884, 15:14:25,66.007773,146.142164,896.966619,95.45
1885, 15:14:25,66.160709,146.806937,898.81321,95.45
1886, 15:14:25,66.334951,147.458452,901.18821,95.45
1887, 15:14:25,66.469381,148.016572,902.786932,95.45
1888, 15:14:25,66.652659,148.714134,905.350142,95.45
1889, 15:14:25,66.772491,149.294271,906.862216,95.45
1890, 15:14:26,66.923453,149.856534,909.434659,95.45
1891, 15:14:26,67.036537,150.45715,910.240057,95.45
1892, 15:14:26,67.214331,151.096591,913.755682,95.45
1893, 15:14:26,67.377486,151.769295,914.740767,95.45
1894, 15:14:26,67.564315,152.377131,917.455966,95.45
1895, 15:14:26,67.732718,153.122869,919.572443,95.45
1896, 15:14:26,67.896228,153.808002,922.365057,95.45
1897, 15:14:26,68.044586,154.45715,924.12358,95.45
1898, 15:14:26,68.206992,155.070312,926.194602,95.45
1899, 15:14:26,68.367148,155.743963,927.898438,95.45
1900, 15:14:26,68.490964,156.46437,930.019176,95.45
1901, 15:14:26,68.662879,157.169508,931.826705,95.45
1902, 15:14:26,68.711529,157.536103,933.057528,95.45
1903, 15:14:26,67.959399,154.751776,922.226562,95.45
1904, 15:14:26,66.791114,150.110085,906.87358,95.45
1905, 15:14:26,66.040522,146.939749,896.340199,95.45
1906, 15:14:26,65.798887,145.703954,893.019176,95.45
1907, 15:14:26,65.656921,145.229285,890.841619,95.45
1908, 15:14:26,65.54648,144.661222,889.194602,95.45
1909, 15:14:26,65.362098,144.007221,886.659801,95.45
1910, 15:14:26,65.416312,144.127723,888.135653,95.45
1911, 15:14:26,65.648319,144.94259,891.294744,95.45
1912, 15:14:26,65.752367,145.526042,893.306818,95.45
1913, 15:14:26,65.787958,145.671638,893.487216,95.45
1914, 15:14:26,65.82706,145.761955,894.395597,95.45
1915, 15:14:26,65.883996,146.043087,894.792614,95.45
1916, 15:14:26,66.062776,146.627249,898.632812,95.45
1917, 15:14:26,66.23477,147.361979,900.615057,95.45
1918, 15:14:26,66.416509,148.098485,903.127841,95.45
1919, 15:14:26,66.58578,148.795691,905.052557,95.45
1920, 15:14:27,66.741951,149.430398,906.619318,95.45
1921, 15:14:27,66.903606,150.081084,908.983665,95.45
1922, 15:14:27,67.02032,150.603101,909.942472,95.45
1923, 15:14:27,67.175032,151.164299,912.713068,95.45
1924, 15:14:27,67.339646,151.804924,915.247159,95.45
1925, 15:14:27,67.509115,152.44259,916.610085,95.45
1926, 15:14:27,67.642558,153.071141,919.483665,95.45
1927, 15:14:27,67.815933,153.727154,921.178267,95.45
1928, 15:14:27,67.912326,154.213305,922.481534,95.45
1929, 15:14:27,68.09304,154.901278,924.399148,95.45
1930, 15:14:27,68.222854,155.628314,927.110795,95.45
1931, 15:14:27,68.356455,156.346828,928.953125,95.45
1932, 15:14:27,68.08941,155.404119,924.572443,95.45
1933, 15:14:27,67.078677,151.476562,909.978693,95.45
1934, 15:14:27,66.146978,147.645952,898.262074,95.45
1935, 15:14:27,65.69843,145.676728,891.696733,95.45
1936, 15:14:27,65.58866,145.203954,890.931108,95.45
1937, 15:14:27,65.545731,144.985677,889.612926,95.45
1938, 15:14:27,65.449653,144.518466,888.548295,95.45
1939, 15:14:27,65.458649,144.554451,889.286932,95.45
1940, 15:14:27,65.672309,145.266454,892.317472,95.45
1941, 15:14:27,65.787287,145.753433,893.117188,95.45
1942, 15:14:27,65.794547,145.815459,894.179688,95.45
1943, 15:14:27,65.809265,145.816525,894.245739,95.45
1944, 15:14:27,65.851444,146.060488,894.482244,95.45
1945, 15:14:27,66.012153,146.674242,897.105114,95.45
1946, 15:14:27,66.223366,147.410156,899.816051,95.45
1947, 15:14:27,66.433357,148.246094,902.746449,95.45
1948, 15:14:27,66.614189,148.930161,905.234375,95.45
1949, 15:14:27,66.773319,149.576586,906.615767,95.45
1950, 15:14:28,66.896307,150.125473,909.068182,95.475
1951, 15:14:28,67.026121,150.621449,910.580966,95.475
1952, 15:14:28,67.118845,150.991477,912.113636,95.475
1953, 15:14:28,67.195194,151.469105,912.323153,95.475
1954, 15:14:28,67.35827,152.109848,914.676136,95.475
1955, 15:14:28,67.520754,152.687263,916.984375,95.475
1956, 15:14:28,67.719815,153.417495,920.49929,95.475
1957, 15:14:28,67.898556,154.154001,922.637074,95.475
1958, 15:14:28,67.75655,153.693892,920.234375,95.475
1959, 15:14:28,66.804648,150.187618,906.424006,95.475
1960, 15:14:28,65.791114,146.20857,893.541193,95.475
1961, 15:14:28,65.248067,144.043916,885.78054,95.475
1962, 15:14:28,65.100182,143.310488,883.973722,95.475
1963, 15:14:28,65.045178,142.883168,882.398438,95.475
1964, 15:14:28,64.890625,142.295928,880.894886,95.475
1965, 15:14:28,64.828756,142.068182,879.920455,95.475
1966, 15:14:28,65.005051,142.690341,883.372159,95.475
1967, 15:14:28,65.168561,143.373106,885.809659,95.475
1968, 15:14:28,65.19547,143.539062,885.745739,95.475
1969, 15:14:28,65.226089,143.575047,886.041193,95.475
1970, 15:14:28,65.238873,143.71804,886.211648,95.475
1971, 15:14:28,65.378867,144.195786,888.34517,95.475
1972, 15:14:28,65.524858,144.805161,890.09517,95.475
1973, 15:14:28,65.714804,145.556818,893.460227,95.475
1974, 15:14:28,65.905934,146.295455,895.579545,95.475
1975, 15:14:28,66.05157,146.863991,896.851562,95.475
1976, 15:14:28,66.177912,147.320668,899.006392,95.475
1977, 15:14:28,66.317906,147.939039,900.34446,95.475
1978, 15:14:28,66.42444,148.424361,902.554688,95.475
1979, 15:14:28,66.587516,149.051847,904.788352,95.475
1980, 15:14:29,66.732955,149.660985,907.193182,95.475
1981, 15:14:29,66.894295,150.265743,908.736506,95.475
1982, 15:14:29,67.042416,150.785393,910.121449,95.475
1983, 15:14:29,67.202928,151.396662,912.81179,95.475
1984, 15:14:29,67.340593,152.085701,913.860795,95.475
1985, 15:14:29,67.479167,152.731061,916.707386,95.475
1986, 15:14:29,67.148122,151.596354,912.120739,95.475
1987, 15:14:29,66.026121,147.392282,897.058239,95.475
1988, 15:14:29,65.038944,143.45206,882.990767,95.475
1989, 15:14:29,64.618924,141.544271,876.549716,95.475
1990, 15:14:29,64.450047,140.865767,875.098011,95.475
1991, 15:14:29,64.325718,140.213897,872.260653,95.475
1992, 15:14:29,64.110006,139.52036,870.261364,95.475
1993, 15:14:29,64.088029,139.239465,870.402699,95.475
1994, 15:14:29,64.235125,139.884351,872.666903,95.475
1995, 15:14:29,64.447364,140.679688,875.305398,95.475
1996, 15:14:29,64.520952,141.001776,877.147017,95.475
1997, 15:14:29,64.545455,141.191761,877.15625,95.475
1998, 15:14:29,64.608625,141.396425,877.943892,95.475
1999, 15:14:29,64.767598,142.031013,879.910511,95.475
2000, 15:14:29,64.951626,142.713778,883.390625,95.475
2001, 15:14:29,65.141335,143.5116,885.68892,95.475
2002, 15:14:29,65.347735,144.208925,887.821733,95.475
2003, 15:14:29,65.49203,144.883286,889.580966,95.475
2004, 15:14:29,65.663155,145.559067,891.962358,95.475
2005, 15:14:29,65.810961,146.181463,893.810369,95.475
2006, 15:14:29,65.951349,146.722893,896.470881,95.475
2007, 15:14:29,66.110125,147.358783,898.49929,95.475
2008, 15:14:29,66.279751,148.032907,901.259943,95.475
2009, 15:14:29,66.450442,148.713068,902.630682,95.475
2010, 15:14:30,66.634588,149.349787,905.962358,95.475
2011, 15:14:30,66.79727,150.014441,907.745739,95.475
2012, 15:14:30,66.937658,150.659091,909.309659,95.475
2013, 15:14:30,67.08432,151.268584,911.09446,95.475
2014, 15:14:30,67.194997,151.745028,912.978693,95.475
2015, 15:14:30,67.310567,152.336529,913.578835,95.475
2016, 15:14:30,67.481021,153.016927,916.860085,95.475
2017, 15:14:30,67.575324,153.560251,918.566051,95.475
2018, 15:14:30,67.103654,151.824692,911.465199,95.475
2019, 15:14:30,65.888218,147.292022,894.297585,95.475
2020, 15:14:30,64.99566,143.454782,882.524148,95.475
2021, 15:14:30,64.578125,141.741951,876.494318,95.475
2022, 15:14:30,64.458846,141.201349,875.557528,95.475
2023, 15:14:30,64.311592,140.575402,873.301847,95.475
2024, 15:14:30,64.152146,139.891098,871.741477,95.475
2025, 15:14:30,64.134785,139.742424,871.045455,95.475
2026, 15:14:30,64.32848,140.492543,874.682528,95.475
2027, 15:14:30,64.494871,141.219934,876.18892,95.475
2028, 15:14:30,64.555713,141.450284,877.375,95.475
2029, 15:14:30,64.585977,141.591738,877.24929,95.475
2030, 15:14:30,64.662129,141.857126,878.523438,95.475
2031, 15:14:30,64.782,142.425545,880.641335,95.475
2032, 15:14:30,64.984375,143.109375,883.769886,95.475
2033, 15:14:30,65.175781,143.821851,886.152699,95.475
2034, 15:14:30,65.357008,144.540246,888.417614,95.475
2035, 15:14:30,65.517598,145.236032,890.578125,95.475
2036, 15:14:30,65.674203,145.74562,892.672585,95.475
2037, 15:14:30,65.773201,146.291193,894.295455,95.475
2038, 15:14:30,65.934896,146.947206,896.37358,95.475
2039, 15:14:30,66.085503,147.540601,898.698153,95.475
2040, 15:14:31,66.246054,148.121212,900.517045,95.475
2041, 15:14:31,66.410235,148.743963,902.18821,95.475
2042, 15:14:31,66.585543,149.443182,905.321023,95.475
2043, 15:14:31,66.681779,150.036813,906.138494,95.475
2044, 15:14:31,66.823114,150.615175,909.06321,95.475
2045, 15:14:31,67.046402,151.392519,911.673295,95.475
2046, 15:14:31,67.191643,152.064039,913.350142,95.475
2047, 15:14:31,67.155027,152.02474,912.477983,95.475
2048, 15:14:31,66.307213,148.903172,901.578125,95.475
2049, 15:14:31,65.237887,144.722183,886.003551,95.475
2050, 15:14:31,64.657947,142.179806,877.87429,95.475
2051, 15:14:31,64.518821,141.51669,875.867188,95.475
2052, 15:14:31,64.468987,141.329782,876.518466,95.475
2053, 15:14:31,64.411537,141.024384,875.055398,95.475
2054, 15:14:31,64.409446,140.984967,875.824574,95.475
2055, 15:14:31,64.614149,141.575402,878.00071,95.475
2056, 15:14:31,64.798572,142.333215,881.485085,95.475
2057, 15:14:31,64.839449,142.52545,881.007812,95.475
2058, 15:14:31,64.833767,142.524029,880.888494,95.475
2059, 15:14:31,64.843711,142.59742,881.334517,95.475
2060, 15:14:31,64.992306,143.021425,883.659801,95.475
2061, 15:14:31,65.17878,143.843632,886.558949,95.475
2062, 15:14:31,65.416903,144.63518,890.22017,95.475
2063, 15:14:31,65.62792,145.433949,892.49858,95.475
2064, 15:14:31,65.780934,146.121686,894.164773,95.475
2065, 15:14:31,65.905777,146.642992,895.988636,95.475
2066, 15:14:31,66.042259,147.094105,898.283381,95.475
2067, 15:14:31,66.111664,147.492188,898.794034,95.475
2068, 15:14:31,66.256984,147.990649,901.730824,95.475
2069, 15:14:31,66.399187,148.454664,902.327415,95.475
2070, 15:14:32,66.548966,149.007221,904.904119,95.75
2071, 15:14:32,66.712713,149.687382,906.948153,95.75
2072, 15:14:32,66.861308,150.37133,909.568892,95.75
2073, 15:14:32,66.735717,149.940578,907.200284,95.75
2074, 15:14:32,65.796283,146.495384,893.821733,95.75
2075, 15:14:32,64.846394,142.716738,880.283381,95.75
2076, 15:14:32,64.409209,140.707741,874.575994,95.75
2077, 15:14:32,64.258247,140.080137,872.372869,95.75
2078, 15:14:32,64.223564,139.821733,872.700284,95.75
2079, 15:14:32,64.114504,139.314157,870.796875,95.75
2080, 15:14:32,64.126618,139.315933,871.799006,95.75
2081, 15:14:32,64.346985,140.190104,874.12358,95.75
2082, 15:14:32,64.523201,140.848485,877.196023,95.75
2083, 15:14:32,64.556068,141.033736,877.34446,95.75
2084, 15:14:32,64.5756,141.114583,877.994318,95.75
2085, 15:14:32,64.617543,141.321851,877.871449,95.75
2086, 15:14:32,64.773793,141.878196,880.763494,95.75
2087, 15:14:32,64.972262,142.701349,882.392756,95.75
2088, 15:14:32,65.171125,143.41205,885.679688,95.75
2089, 15:14:32,65.310685,144.045218,888.09517,95.75
2090, 15:14:32,65.433554,144.522254,889.360795,95.75
2091, 15:14:32,65.511245,144.913471,889.929688,95.75
2092, 15:14:32,65.616162,145.313447,891.178977,95.75
2093, 15:14:32,65.751815,145.817945,893.294034,95.75
2094, 15:14:32,65.860717,146.149858,895.53267,95.75
2095, 15:14:32,65.965909,146.618371,895.815341,95.75
2096, 15:14:32,66.106692,147.151989,898.474432,95.75
2097, 15:14:32,66.266375,147.785393,900.223722,95.75
2098, 15:14:32,66.282039,147.887311,900.403409,95.75
2099, 15:14:32,65.565262,145.335938,889.870739,95.75
2100, 15:14:33,64.601918,141.438802,876.328835,95.775
2101, 15:14:33,64.053938,139.057173,868.740767,95.775
2102, 15:14:33,63.868608,138.172112,867.041193,95.775
2103, 15:14:33,63.757891,137.680398,864.213068,95.775
2104, 15:14:33,63.595802,137.019886,863.471591,95.775
2105, 15:14:33,63.539339,136.701823,862.574574,95.775
2106, 15:14:33,63.733546,137.398082,865.638494,95.775
2107, 15:14:33,63.997435,138.515507,868.610085,95.775
2108, 15:14:33,64.119318,139.133049,870.332386,95.775
2109, 15:14:33,64.212318,139.405895,871.421165,95.775
2110, 15:14:33,64.289733,139.819957,872.439631,95.775
2111, 15:14:33,64.423098,140.348366,874.121449,95.775
2112, 15:14:33,64.614623,140.984493,876.835938,95.775
2113, 15:14:33,64.799953,141.763021,878.56108,95.775
2114, 15:14:33,65.005997,142.622633,882.059659,95.775
2115, 15:14:33,65.229482,143.541193,884.613636,95.775
2116, 15:14:33,65.421993,144.30812,887.828835,95.775
2117, 15:14:33,65.563723,144.966264,889.652699,95.775
2118, 15:14:33,65.713739,145.518111,891.415483,95.775
2119, 15:14:33,65.924164,146.424953,894.830966,95.775
2120, 15:14:33,66.053583,147.141809,897.205966,95.775
2121, 15:14:33,66.282276,147.929214,899.569602,95.775
2122, 15:14:33,66.457741,148.670573,901.242188,95.775
2123, 15:14:33,66.700166,149.520952,904.335938,95.775
2124, 15:14:33,66.910354,150.421402,906.772727,95.775
2125, 15:14:33,67.130051,151.229167,910.355114,95.775
2126, 15:14:33,67.031566,151.057765,908.599432,95.775
2127, 15:14:33,66.346788,148.547467,897.872869,95.775
2128, 15:14:33,65.645676,145.797348,888.545455,95.775
2129, 15:14:33,65.311829,144.354048,883.53054,95.775
2130, 15:14:34,65.134983,143.662524,882.108665,95.775
2131, 15:14:34,65.008365,143.100852,879.607955,95.775
2132, 15:14:34,64.872593,142.516927,877.825994,95.775
2133, 15:14:34,64.894689,142.574219,878.112926,95.775
2134, 15:14:34,65.144571,143.475379,882.122159,95.775
2135, 15:14:34,65.378196,144.423414,885.432528,95.775
2136, 15:14:34,65.464291,144.853575,886.661222,95.775
2137, 15:14:34,65.566012,145.294626,888.017756,95.775
2138, 15:14:34,65.672822,145.827178,889.369318,95.775
2139, 15:14:34,65.838463,146.474195,890.893466,95.775
2140, 15:14:34,66.088542,147.397254,895.78125,95.775
2141, 15:14:34,66.2936,148.241122,898.051847,95.775
2142, 15:14:34,66.498501,149.055634,900.640625,95.775
2143, 15:14:34,66.69184,149.860559,902.598011,95.775
2144, 15:14:34,66.920139,150.697443,905.815341,95.775
2145, 15:14:34,67.081518,151.407907,907.492898,95.775
2146, 15:14:34,67.268584,152.263139,911.541903,95.775
2147, 15:14:34,67.434343,153.086648,912.988636,95.775
2148, 15:14:34,67.622435,153.987571,915.087358,95.775
2149, 15:14:34,67.821536,154.951349,918.441051,95.775
2150, 15:14:34,68.034525,155.779238,921.439631,95.775
2151, 15:14:34,68.147135,156.605232,922.37571,95.775
2152, 15:14:34,68.358783,157.488755,926.020597,95.775
2153, 15:14:34,68.492622,158.320194,927.392756,95.775
2154, 15:14:34,68.6817,159.241122,931.12571,95.775
2155, 15:14:34,68.864978,160.049006,933.191761,95.775
2156, 15:14:34,69.00288,160.916312,935.497869,95.775
2157, 15:14:34,68.847932,160.395123,932.947443,95.775
2158, 15:14:34,68.283617,158.201705,924.735795,95.775
2159, 15:14:34,67.961806,156.543087,919.122159,95.775
2160, 15:14:35,67.869121,155.841264,918.141335,95.825
2161, 15:14:35,67.811316,155.526752,917.774148,95.825
2162, 15:14:35,67.733941,155.120384,915.784801,95.825
2163, 15:14:35,67.65992,154.628433,914.049006,95.825
2164, 15:14:35,67.692195,154.753196,915.539062,95.825
2165, 15:14:35,67.856889,155.353338,918.40696,95.825
2166, 15:14:35,67.923335,155.845289,920.06321,95.825
2167, 15:14:35,67.919429,155.986979,919.578125,95.825
2168, 15:14:35,67.917653,156.033736,919.304688,95.825
2169, 15:14:35,67.992858,156.31617,919.837358,95.825
2170, 15:14:35,68.094934,156.795691,922.083807,95.825
2171, 15:14:35,68.211214,157.433357,923.733665,95.825
2172, 15:14:35,68.378591,157.992306,926.289062,95.825
2173, 15:14:35,68.495068,158.650923,928.200994,95.825
2174, 15:14:35,68.608507,159.237453,929.916193,95.825
2175, 15:14:35,68.726444,159.736151,931.487926,95.825
2176, 15:14:35,68.815262,160.24929,933.765625,95.825
2177, 15:14:35,68.930911,160.774266,934.864347,95.825
2178, 15:14:35,69.061356,161.371094,936.774858,95.825
2179, 15:14:35,69.206834,161.985559,938.328125,95.825
2180, 15:14:35,69.337318,162.618016,940.977983,95.825
2181, 15:14:35,69.44985,163.189039,942.435369,95.825
2182, 15:14:35,69.571733,163.840672,944.799716,95.825
2183, 15:14:35,69.698745,164.396425,946.861506,95.825
2184, 15:14:35,69.809343,164.892992,948.502841,95.825
2185, 15:14:35,69.567235,164.018939,944.474432,95.825
2186, 15:14:35,69.048927,161.847538,936.508523,95.825
2187, 15:14:35,68.81321,160.45857,932.078125,95.825
2188, 15:14:35,68.766335,159.856297,931.28267,95.825
2189, 15:14:35,68.746962,159.582741,930.368608,95.825
2190, 15:14:36,68.657631,159.164654,929.519176,95.825
2191, 15:14:36,68.629459,158.773319,927.475142,95.825
2192, 15:14:36,68.692038,158.94401,929.172585,95.825
2193, 15:14:36,68.782079,159.332505,930.745028,95.825
2194, 15:14:36,68.821062,159.411577,931.952415,95.825
2195, 15:14:36,68.8677,159.468632,931.837358,95.825
2196, 15:14:36,68.854206,159.492543,932.256392,95.825
2197, 15:14:36,68.917929,159.671875,932.650568,95.825
2198, 15:14:36,68.999724,160.032789,934.401278,95.825
2199, 15:14:36,69.08724,160.454427,935.087358,95.825
2200, 15:14:36,69.196851,160.858073,936.557528,95.825
2201, 15:14:36,69.308278,161.394058,937.520597,95.825
2202, 15:14:36,69.40116,161.781605,939.831676,95.825
2203, 15:14:36,69.48907,162.135298,941.300426,95.825
2204, 15:14:36,69.584359,162.545691,943.271307,95.825
2205, 15:14:36,69.674637,162.956203,944.03267,95.825
2206, 15:14:36,69.778606,163.347656,945.870028,95.825
2207, 15:14:36,69.888415,163.833807,947.582386,95.825
2208, 15:14:36,69.986032,164.209044,948.634943,95.825
2209, 15:14:36,70.1003,164.736506,950.382102,95.825
2210, 15:14:36,70.253512,165.346709,952.307528,95.825
2211, 15:14:36,70.306581,165.552794,953.069602,95.825
2212, 15:14:36,69.980824,164.118134,947.961648,95.825
2213, 15:14:36,69.474195,161.606771,938.680398,95.825
2214, 15:14:36,69.225103,160.017164,935.077415,95.825
2215, 15:14:36,69.136995,159.040246,932.860795,95.825
2216, 15:14:36,69.049045,158.256984,931.482244,95.825
2217, 15:14:36,68.858586,157.414773,927.897727,95.825
2218, 15:14:36,68.746015,156.680753,926.618608,95.825
2219, 15:14:36,68.755682,156.641098,926.857955,95.825
2220, 15:14:37,68.835543,156.845644,927.960227,95.85
2221, 15:14:37,68.856455,157.022017,928.566761,95.85
2222, 15:14:37,68.831124,156.903409,928.301136,95.85
2223, 15:14:37,68.824968,156.807292,927.357955,95.85
2224, 15:14:37,68.850694,156.847538,928.627841,95.85
2225, 15:14:37,68.917969,157.052675,928.824574,95.85
2226, 15:14:37,69.047309,157.490412,931.152699,95.85
2227, 15:14:37,69.152896,157.959162,932.840199,95.85
2228, 15:14:37,69.258878,158.270005,934.165483,95.85
2229, 15:14:37,69.356218,158.702178,935.309659,95.85
2230, 15:14:37,69.460346,159.03776,937.257812,95.85
2231, 15:14:37,69.523595,159.324574,937.541193,95.85
2232, 15:14:37,69.598406,159.747869,938.802557,95.85
2233, 15:14:37,69.728141,160.305634,940.183239,95.85
2234, 15:14:37,69.85247,160.731179,942.787642,95.85
2235, 15:14:37,69.963147,161.277225,944.558239,95.85
2236, 15:14:37,70.095881,161.876184,947.100852,95.85
2237, 15:14:37,70.223998,162.27474,947.475142,95.85
2238, 15:14:37,70.333136,162.802438,950.476562,95.85
2239, 15:14:37,70.431503,163.153409,950.764205,95.85
2240, 15:14:37,70.551018,163.69188,952.793324,95.85
2241, 15:14:37,70.679766,164.328125,954.494318,95.85
2242, 15:14:37,70.67294,164.221473,954.74929,95.85
2243, 15:14:37,70.123895,161.944602,945.815341,95.85
2244, 15:14:37,69.517914,159.076941,937.018466,95.85
2245, 15:14:37,69.162445,157.355232,931.432528,95.85
2246, 15:14:37,68.97822,156.383523,928.559659,95.85
2247, 15:14:37,68.787839,155.664181,926.53054,95.85
2248, 15:14:37,68.574929,154.65187,923.987926,95.85
2249, 15:14:37,68.388928,153.800308,921.472301,95.85
